<DataExport xmlns:xsi="http://www.w3.org/2001/XMLSchema-instance" Version="1.0" xsi:noNamespaceSchemaLocation="DataExport.xsd">
	<Header>
		<DateTime>2021-09-27T20:53:55+12:00</DateTime>
	</Header>
	<Patient>
		<Demographics>
			<FirstName>MICKEY</FirstName>
			<MidName>NONAME</MidName>
			<LastName>MOUSE</LastName>
			<PatientID>ABC1234</PatientID>
			<VisitNumber>A1412158853</VisitNumber>
			<DateOfBirth>1900-01-11</DateOfBirth>
			<Age>P120Y</Age>
			<Gender>M</Gender>
			<Race>UNDEFINED</Race>
			<BloodType>UNKNOWN</BloodType>
			<Height>-1.$</Height>
			<Weight>-1.$</Weight>
		</Demographics>
		<AssignedLocation>
			<Bed>RES3</Bed>
			<Room>N-ED</Room>
			<PointOfCare>EDN</PointOfCare>
			<Facility>NSH</Facility>
			<DeviceName>NSH-ED-R3S</DeviceName>
		</AssignedLocation>
		<Paced>true</Paced>
		<ClinicalClassifications>
			<ClinicalClassification> </ClinicalClassification>
			<ClinicalClassification> </ClinicalClassification>
		</ClinicalClassifications>
	</Patient>
	<VitalSigns>
		<Observations Time="2021-09-27T20:53:39.000+12:00">
			<Observation Type="HEIGHT" Units="cm">--</Observation>
			<Observation Type="WEIGHT" Units="kg">--</Observation>
			<QTCFormula>HODGES</QTCFormula>
		</Observations>
		<TwelveLeadReport Time="2021-09-27T20:53:39.000+12:00">
			<Source>
				<Manufacturer>(C) Shenzhen Mindray Bio-Medical Electronics Co., Ltd. All rights reserved.</Manufacturer>
				<Model>BeneVision N22/19</Model>
				<Version>02.25.00.01</Version>
				<ID>JL-05002328</ID>
			</Source>
			<Observations Time="2021-09-27T20:53:39.000+12:00">
				<Observation Type="ECG_HR" Units="BPM">83</Observation>
				<Observation Type="ECG_PR_INTERVAL" Units="ms">138</Observation>
				<Observation Type="ECG_QRS_DURATION" Units="ms">182</Observation>
				<Observation Type="ECG_QT_INTERVAL" Units="ms">438</Observation>
				<Observation Type="ECG_QTC_INTERVAL" Units="ms">478</Observation>
				<Observation Type="ECG_P_AXIS" Units="deg">112</Observation>
				<Observation Type="ECG_QRS_AXIS" Units="deg">-85</Observation>
				<Observation Type="ECG_T_AXIS" Units="deg">86</Observation>
				<QTCFormula>HODGES</QTCFormula>
			</Observations>
			<Waveforms>
				<Waveform Type="ECG_I" Units="uV">
					<Filters>
						<HighPass>0.5</HighPass>
						<LowPass>35</LowPass>
						<BaselineDriftRemoval>ON</BaselineDriftRemoval>
					</Filters>
					<WaveformSegment Time="2021-09-27T20:53:29.000+12:00">
						<SampleRate>1000</SampleRate>
						<DataResolution>1.0000</DataResolution>
						<Data>105,113,121,129,137,145,153,161,169,176,182,188,192,196,199,203,207,212,218,226,234,245,256,268,281,294,307,319,331,341,351,360,369,377,385,394,402,410,418,426,434,442,450,456,461,465,469,471,473,476,478,480,483,484,486,487,487,488,488,488,489,488,488,487,484,481,476,470,464,458,451,445,439,434,429,423,416,408,399,388,376,362,347,331,314,296,278,259,241,223,206,190,175,162,149,138,127,116,105,94,83,71,60,48,37,26,15,5,-5,-14,-24,-33,-42,-50,-56,-61,-66,-69,-72,-75,-77,-79,-82,-84,-85,-87,-88,-89,-89,-89,-89,-89,-88,-88,-87,-85,-83,-81,-78,-75,-73,-71,-69,-67,-66,-65,-64,-63,-62,-62,-62,-62,-62,-63,-65,-67,-68,-70,-72,-73,-75,-77,-78,-80,-81,-82,-83,-84,-84,-85,-86,-87,-88,-89,-90,-92,-93,-95,-96,-98,-100,-101,-102,-102,-102,-103,-103,-103,-104,-104,-104,-104,-104,-103,-103,-103,-102,-102,-101,-101,-101,-100,-100,-100,-100,-100,-100,-100,-100,-101,-102,-102,-102,-102,-101,-100,-99,-98,-97,-97,-96,-96,-95,-94,-93,-92,-91,-90,-89,-88,-88,-88,-88,-88,-88,-89,-90,-91,-92,-94,-95,-96,-96,-96,-96,-95,-94,-93,-91,-90,-90,-90,-90,-91,-93,-96,-99,-102,-105,-108,-110,-112,-112,-112,-111,-110,-109,-109,-108,-108,-107,-107,-106,-105,-103,-102,-101,-101,-101,-102,-103,-104,-104,-104,-104,-103,-101,-99,-96,-94,-92,-90,-88,-87,-86,-86,-86,-86,-87,-88,-88,-89,-88,-88,-86,-84,-82,-80,-77,-75,-72,-70,-68,-66,-64,-62,-61,-59,-58,-56,-54,-52,-50,-49,-48,-48,-48,-49,-49,-48,-47,-44,-40,-35,-31,-26,-22,-19,-16,-14,-13,-12,-11,-11,-10,-10,-10,-10,-10,-11,-12,-13,-14,-15,-15,-15,-15,-14,-13,-11,-10,-8,-6,-5,-3,-2,-2,-2,-2,-3,-4,-5,-7,-9,-10,-11,-12,-12,-11,-10,-8,-7,-5,-3,-1,0,0,0,0,0,0,-1,-2,-3,-3,-4,-4,-5,-5,-6,-7,-8,-9,-10,-10,-10,-10,-10,-10,-10,-10,-10,-11,-12,-14,-15,-17,-19,-20,-21,-22,-22,-22,-21,-21,-20,-19,-18,-17,-17,-17,-17,-17,-17,-17,-18,-19,-20,-21,-22,-22,-23,-23,-23,-24,-23,-23,-21,-20,-18,-17,-17,-17,-18,-20,-21,-23,-24,-25,-26,-26,-26,-26,-26,-26,-26,-26,-25,-25,-24,-23,-22,-21,-21,-21,-22,-23,-25,-27,-30,-32,-34,-36,-37,-38,-38,-38,-39,-39,-39,-39,-39,-38,-37,-36,-35,-33,-32,-32,-32,-32,-33,-34,-35,-36,-36,-36,-36,-35,-34,-33,-32,-32,-32,-33,-35,-37,-39,-40,-42,-42,-42,-42,-40,-39,-37,-36,-35,-35,-35,-35,-35,-35,-35,-34,-33,-31,-30,-28,-27,-25,-24,-24,-24,-24,-25,-27,-29,-31,-33,-35,-36,-36,-36,-35,-33,-32,-32,-32,-32,-33,-35,-36,-38,-38,-38,-38,-37,-35,-34,-32,-30,-28,-26,-26,-26,-26,-28,-30,-33,-35,-37,-38,-38,-38,-37,-37,-37,-37,-37,-36,-36,-36,-35,-34,-34,-34,-34,-35,-36,-37,-38,-38,-38,-38,-37,-35,-34,-32,-31,-30,-30,-31,-32,-33,-35,-36,-37,-37,-38,-37,-37,-36,-35,-34,-34,-33,-32,-31,-31,-31,-31,-31,-31,-31,-31,-31,-30,-30,-30,-30,-30,-30,-30,-30,-30,-31,-31,-31,-32,-32,-33,-34,-35,-36,-37,-37,-37,-37,-36,-35,-33,-32,-31,-31,-31,-31,-31,-31,-32,-32,-33,-32,-32,-32,-32,-32,-33,-34,-35,-35,-35,-35,-34,-32,-31,-29,-28,-28,-28,-28,-28,-29,-30,-30,-30,-31,-31,-32,-32,-33,-34,-34,-35,-34,-34,-33,-31,-30,-28,-27,-26,-25,-25,-25,-25,-25,-25,-25,-25,-25,-25,-24,-23,-22,-21,-21,-22,-23,-25,-27,-30,-32,-34,-34,-34,-34,-32,-31,-29,-28,-27,-27,-27,-27,-27,-27,-27,-27,-27,-27,-28,-28,-28,-29,-29,-29,-30,-30,-30,-30,-30,-30,-30,-30,-30,-30,-30,-29,-28,-28,-28,-28,-29,-30,-32,-33,-34,-35,-36,-35,-34,-32,-30,-27,-25,-23,-21,-19,-18,-18,-18,-18,-18,-18,-18,-18,-18,-19,-20,-21,-22,-22,-23,-24,-25,-25,-26,-26,-26,-27,-27,-28,-28,-29,-30,-31,-33,-34,-81,-72,-74,-65,-40,-12,-105,-94,-87,-86,-76,-70,-83,-89,-85,-75,-57,-80,-68,-73,-34,-33,-32,-31,-29,-28,-26,-25,-24,-23,-22,-21,-20,-18,-17,-15,-13,-12,-10,-9,-9,-9,-9,-9,-10,-11,-11,-12,-13,-15,-16,-18,-19,-20,-20,-20,-20,-19,-18,-17,-17,-17,-17,-17,-17,-17,-18,-18,-19,-19,-20,-21,-22,-23,-24,-25,-25,-26,-26,-27,-28,-29,-30,-31,-32,-32,-32,-33,-33,-33,-34,-34,-34,-35,-35,-36,-36,-36,-36,-35,-34,-32,-30,-28,-26,-24,-22,-21,-20,-20,-20,-21,-22,-23,-25,-26,-72,-74,-81,-142,-105,-11,-36,-54,-55,-70,-78,-86,-70,-66,-75,-63,-68,-71,-67,-79,-23,-23,-23,-25,-27,-29,-32,-35,-38,-41,-42,-43,-42,-40,-38,-35,-32,-29,-25,-22,-19,-16,-13,-10,-7,-4,-1,2,6,10,14,19,23,27,31,35,39,44,49,55,62,69,77,84,92</Data>
					</WaveformSegment>
					<WaveformSegment Time="2021-09-27T20:53:30.000+12:00">
						<SampleRate>1000</SampleRate>
						<DataResolution>1.0000</DataResolution>
						<Data>99,106,113,120,127,134,141,148,155,162,169,176,183,191,199,207,215,223,231,239,247,255,263,271,280,288,296,305,313,321,329,337,346,355,364,372,380,389,397,405,413,421,428,435,441,447,453,458,463,469,475,480,486,492,497,502,507,510,513,514,514,513,510,507,503,498,494,490,486,483,480,477,473,468,462,455,446,436,424,411,397,381,364,347,329,312,294,276,258,241,224,209,194,180,167,155,143,130,117,103,89,75,61,48,36,25,16,8,1,-4,-10,-16,-22,-29,-36,-43,-49,-55,-60,-64,-66,-68,-68,-69,-69,-68,-68,-68,-67,-67,-67,-67,-67,-67,-68,-70,-71,-73,-74,-74,-74,-73,-72,-70,-68,-67,-66,-66,-67,-68,-70,-72,-73,-75,-77,-78,-78,-79,-79,-80,-81,-83,-84,-86,-88,-89,-90,-90,-90,-90,-89,-87,-86,-84,-83,-81,-80,-80,-80,-80,-80,-81,-82,-82,-82,-83,-83,-83,-83,-83,-83,-83,-83,-83,-83,-83,-83,-84,-84,-84,-85,-85,-85,-86,-86,-86,-86,-86,-86,-86,-85,-84,-83,-81,-80,-79,-79,-79,-80,-82,-84,-86,-88,-90,-92,-94,-96,-97,-99,-100,-101,-101,-101,-101,-100,-99,-98,-97,-97,-97,-97,-97,-97,-97,-98,-97,-97,-96,-94,-93,-92,-92,-92,-93,-94,-95,-97,-98,-99,-100,-101,-101,-102,-102,-102,-103,-103,-103,-104,-104,-104,-104,-104,-103,-103,-103,-102,-102,-101,-100,-100,-100,-100,-99,-99,-99,-98,-97,-96,-95,-94,-92,-91,-90,-89,-88,-87,-85,-84,-82,-81,-79,-78,-77,-76,-76,-76,-77,-78,-79,-79,-79,-78,-77,-75,-73,-71,-69,-67,-65,-63,-61,-59,-57,-55,-53,-51,-49,-47,-46,-44,-42,-40,-38,-36,-35,-34,-34,-33,-33,-32,-30,-29,-27,-25,-24,-22,-21,-21,-21,-22,-23,-24,-25,-25,-25,-25,-25,-24,-23,-21,-19,-18,-16,-14,-13,-11,-10,-9,-8,-8,-8,-8,-9,-10,-11,-11,-11,-11,-10,-9,-7,-6,-5,-4,-4,-5,-5,-5,-5,-4,-3,-2,-2,-2,-2,-3,-4,-5,-6,-7,-8,-9,-9,-9,-10,-10,-10,-11,-11,-11,-11,-11,-12,-12,-13,-13,-14,-16,-18,-19,-21,-22,-23,-22,-21,-19,-16,-13,-11,-9,-7,-5,-3,-2,-1,-1,-1,-1,-1,-2,-4,-6,-8,-11,-14,-16,-18,-19,-19,-18,-17,-15,-14,-12,-10,-8,-7,-7,-7,-7,-7,-8,-10,-11,-12,-13,-14,-14,-14,-15,-15,-15,-16,-17,-17,-17,-17,-16,-15,-14,-12,-11,-10,-9,-9,-9,-9,-10,-11,-13,-14,-15,-16,-17,-18,-20,-21,-23,-24,-26,-27,-27,-28,-28,-28,-29,-29,-29,-29,-29,-29,-28,-26,-24,-22,-20,-18,-16,-14,-13,-12,-12,-11,-11,-10,-10,-9,-9,-9,-9,-9,-10,-11,-13,-15,-16,-18,-20,-21,-22,-22,-22,-21,-20,-19,-18,-16,-15,-13,-12,-12,-12,-12,-12,-12,-13,-14,-15,-16,-17,-18,-20,-21,-22,-23,-24,-24,-24,-23,-22,-21,-19,-17,-14,-12,-10,-8,-7,-7,-7,-7,-8,-9,-10,-10,-11,-11,-11,-11,-11,-11,-11,-11,-12,-14,-15,-16,-17,-17,-18,-18,-19,-21,-23,-25,-26,-28,-30,-31,-32,-33,-33,-34,-34,-34,-33,-31,-29,-27,-25,-23,-21,-20,-20,-20,-20,-20,-20,-20,-20,-20,-20,-21,-20,-20,-20,-20,-20,-21,-23,-25,-27,-28,-30,-31,-31,-31,-29,-27,-25,-23,-21,-19,-18,-18,-18,-19,-20,-22,-23,-25,-27,-28,-30,-31,-31,-31,-31,-30,-28,-27,-25,-23,-22,-21,-20,-20,-20,-21,-22,-23,-23,-23,-23,-22,-21,-20,-19,-17,-16,-15,-14,-14,-14,-14,-15,-16,-17,-18,-19,-20,-20,-20,-19,-19,-19,-20,-22,-23,-25,-27,-27,-28,-27,-26,-24,-23,-21,-19,-17,-16,-16,-16,-17,-18,-19,-20,-21,-22,-23,-24,-24,-25,-25,-25,-26,-26,-26,-26,-26,-26,-26,-25,-25,-24,-23,-22,-21,-20,-19,-19,-19,-19,-20,-21,-22,-23,-23,-24,-24,-25,-26,-27,-28,-29,-30,-31,-31,-32,-31,-31,-30,-29,-28,-28,-28,-29,-31,-32,-34,-35,-37,-37,-37,-37,-36,-35,-34,-33,-32,-30,-29,-27,-25,-23,-22,-21,-21,-22,-24,-27,-30,-33,-36,-39,-41,-43,-44,-45,-45,-45,-44,-43,-42,-40,-39,-38,-37,-37,-37,-37,-38,-40,-41,-42,-42,-42,-42,-41,-40,-38,-36,-35,-33,-32,-31,-31,-32,-33,-35,-37,-39,-40,-41,-41,-39,-38,-36,-34,-33,-32,-32,-32,-32,-32,-32,-32,-31,-30,-29,-27,-26,-25,-24,-46,-65,-47,-95,-58,33,-14,-25,-54,-53,-55,-26,-55,-37,-50,-56,-56,-50,-31,-30,-19,-19,-20,-21,-22,-24,-25,-26,-27,-27,-27,-27,-26,-25,-24,-22,-21,-18,-16,-13,-11,-8,-6,-4,-2,0,1,3,5,7,10,13,18,24,31,39,48,56,64,71,77,83,88,93,99,105,111,118,126,134,143,153,163,172,182,191,200,208,216,224,232,239,247,254,261,267,274,282,290,299,310,321,333,345,357,368,379,389,399,408,417,426,435,444,453,462,470,478,485,491,497,503,508,512,516,519,522,524,525,526,526,527,527,526,526,526,525,524,522,520,517,513,508,503,496</Data>
					</WaveformSegment>
					<WaveformSegment Time="2021-09-27T20:53:31.000+12:00">
						<SampleRate>1000</SampleRate>
						<DataResolution>1.0000</DataResolution>
						<Data>490,484,477,470,463,455,447,438,428,418,406,394,382,368,353,337,320,301,282,262,242,223,205,189,173,159,145,132,119,106,92,79,66,54,43,32,22,12,3,-6,-17,-27,-38,-49,-58,-66,-73,-78,-81,-83,-84,-84,-84,-84,-83,-83,-82,-82,-82,-82,-82,-81,-81,-81,-81,-81,-81,-81,-81,-81,-81,-81,-81,-81,-82,-83,-83,-84,-83,-83,-82,-82,-82,-82,-82,-82,-82,-82,-83,-84,-85,-87,-88,-90,-92,-93,-93,-94,-93,-93,-93,-93,-93,-93,-93,-93,-93,-94,-95,-96,-97,-98,-98,-98,-98,-98,-98,-98,-98,-98,-97,-97,-97,-96,-95,-94,-93,-93,-93,-93,-93,-94,-96,-98,-100,-102,-103,-105,-107,-108,-110,-110,-110,-110,-108,-106,-103,-100,-98,-96,-95,-95,-95,-97,-100,-103,-106,-109,-111,-113,-115,-115,-115,-114,-113,-112,-111,-111,-111,-111,-112,-113,-114,-114,-114,-114,-114,-114,-115,-116,-117,-119,-120,-120,-119,-118,-116,-114,-114,-114,-115,-117,-119,-122,-124,-127,-128,-129,-129,-128,-127,-126,-125,-124,-124,-124,-124,-124,-124,-124,-124,-124,-125,-127,-128,-130,-131,-132,-132,-132,-131,-129,-127,-125,-123,-120,-117,-114,-111,-108,-106,-104,-103,-102,-102,-103,-104,-105,-106,-107,-106,-105,-103,-101,-99,-96,-94,-92,-90,-88,-86,-84,-82,-80,-79,-78,-76,-74,-72,-69,-66,-63,-60,-57,-55,-53,-52,-51,-51,-51,-51,-51,-51,-51,-51,-51,-51,-51,-50,-50,-49,-48,-46,-44,-42,-40,-38,-37,-37,-36,-36,-36,-35,-33,-32,-30,-29,-28,-28,-29,-31,-32,-34,-35,-34,-33,-30,-27,-24,-21,-18,-17,-17,-17,-19,-21,-23,-25,-26,-27,-27,-27,-26,-25,-24,-24,-24,-24,-24,-25,-26,-28,-29,-30,-30,-31,-31,-30,-30,-30,-30,-30,-30,-30,-31,-32,-33,-33,-34,-33,-33,-32,-31,-30,-30,-30,-30,-30,-30,-30,-30,-30,-31,-31,-31,-32,-33,-34,-35,-36,-37,-37,-38,-37,-37,-37,-37,-38,-39,-41,-43,-44,-45,-46,-45,-44,-42,-41,-39,-38,-37,-37,-37,-38,-40,-41,-42,-42,-42,-42,-41,-40,-38,-37,-35,-34,-33,-33,-33,-33,-34,-36,-37,-39,-40,-41,-41,-41,-42,-42,-42,-42,-42,-41,-39,-37,-33,-29,-25,-21,-18,-16,-15,-16,-18,-21,-24,-28,-31,-33,-36,-37,-38,-38,-38,-37,-35,-34,-32,-31,-31,-31,-31,-32,-33,-34,-35,-35,-36,-36,-36,-36,-35,-34,-32,-31,-30,-30,-30,-31,-32,-33,-33,-34,-33,-33,-32,-32,-32,-32,-32,-32,-32,-31,-30,-29,-27,-26,-24,-23,-23,-23,-24,-26,-27,-29,-31,-32,-32,-32,-32,-31,-30,-29,-29,-29,-29,-30,-31,-32,-32,-33,-33,-33,-33,-34,-35,-36,-38,-39,-41,-42,-43,-44,-45,-45,-45,-45,-44,-43,-42,-41,-39,-38,-37,-36,-36,-36,-36,-36,-37,-39,-41,-43,-46,-49,-51,-54,-55,-56,-57,-56,-55,-54,-53,-51,-50,-49,-49,-48,-48,-47,-46,-44,-43,-41,-39,-37,-36,-36,-36,-37,-39,-41,-42,-44,-46,-48,-50,-51,-53,-55,-56,-58,-60,-83,-74,-55,-99,-63,27,-2,-30,-39,-55,-71,-70,-78,-84,-43,-50,-57,-59,-56,-59,-57,-55,-54,-52,-51,-49,-47,-46,-43,-41,-38,-34,-31,-29,-27,-26,-26,-25,-25,-25,-24,-24,-24,-23,-22,-20,-18,-15,-11,-7,-4,0,4,9,14,21,28,36,44,53,62,71,80,87,95,101,108,115,123,131,140,149,158,167,175,181,187,192,197,203,209,215,223,231,239,248,256,265,273,282,290,299,308,318,328,338,348,358,368,378,388,398,409,419,429,438,447,455,463,469,475,481,486,490,494,499,503,507,510,513,515,518,519,521,522,523,523,523,521,518,515,510,504,499,493,487,481,476,471,465,459,452,444,434,423,411,397,382,366,348,330,312,293,274,255,237,219,203,187,171,157,143,130,117,104,90,77,63,50,37,24,13,2,-8,-18,-28,-37,-46,-54,-61,-67,-73,-77,-81,-85,-88,-89,-90,-90,-89,-88,-88,-88,-88,-88,-87,-87,-87,-86,-86,-86,-86,-86,-86,-86,-87,-88,-89,-90,-91,-91,-92,-92,-92,-92,-92,-92,-92,-91,-91,-91,-90,-90,-89,-88,-86,-85,-85,-85,-85,-85,-86,-87,-88,-89,-91,-92,-93,-94,-95,-95,-95,-95,-95,-94,-94,-94,-94,-94,-94,-94,-94,-94,-94,-95,-95,-95,-96,-96,-96,-96,-96,-97,-98,-99,-99,-100,-101,-102,-103,-104,-105,-106,-106,-105,-104,-102,-101,-100,-99,-99,-100,-102,-104,-106,-107,-109,-109,-109,-109,-108,-108,-108,-108,-108,-109,-110,-111,-111,-112,-112,-113,-114,-115,-117,-119,-120,-122,-124,-125,-126,-127,-128,-129,-129,-130,-130,-130,-130,-129,-128,-127,-126,-125,-124,-123,-122,-122,-122,-123,-124,-126,-129,-131,-134,-136,-137,-136,-135,-133,-130,-128,-126,-124,-123,-122,-122,-122,-122,-122,-122,-122,-123,-125,-126,-128,-128,-129,-128,-127,-125,-123,-120,-118,-116,-114,-113,-113,-112,-112,-111,-110,-108,-105,-102,-98,-95,-92,-89,-87,-85,-84,-83,-82,-81,-80,-79,-78,-77,-76,-75,-73,-71,-69,-67,-65,-63,-62,-61,-61,-61,-60,-60,-60,-59,-58,-56,-54,-51,-48,-44,-41,-38,-36,-34</Data>
					</WaveformSegment>
					<WaveformSegment Time="2021-09-27T20:53:32.000+12:00">
						<SampleRate>1000</SampleRate>
						<DataResolution>1.0000</DataResolution>
						<Data>-33,-32,-32,-32,-31,-30,-28,-26,-25,-23,-21,-20,-20,-20,-21,-23,-24,-25,-26,-27,-28,-28,-29,-29,-29,-30,-30,-30,-31,-31,-31,-31,-31,-31,-31,-32,-33,-34,-34,-34,-34,-32,-31,-29,-27,-26,-25,-26,-28,-31,-34,-36,-38,-38,-38,-36,-35,-33,-31,-29,-28,-28,-28,-28,-28,-28,-28,-28,-29,-29,-30,-31,-33,-35,-37,-39,-41,-43,-45,-45,-45,-45,-45,-45,-45,-45,-45,-46,-47,-48,-48,-48,-48,-47,-47,-47,-46,-46,-45,-44,-43,-42,-41,-40,-39,-38,-37,-37,-37,-39,-41,-45,-49,-54,-60,-65,-69,-74,-77,-80,-82,-84,-84,-84,-84,-83,-81,-79,-77,-73,-69,-65,-60,-55,-50,-46,-42,-40,-38,-37,-37,-37,-39,-41,-42,-44,-44,-44,-42,-40,-38,-35,-31,-28,-25,-23,-22,-21,-21,-22,-24,-26,-28,-30,-33,-36,-38,-41,-43,-45,-48,-50,-52,-54,-56,-58,-59,-59,-58,-56,-52,-47,-42,-37,-32,-27,-25,-24,-25,-27,-31,-35,-39,-43,-45,-45,-45,-43,-41,-39,-37,-37,-37,-38,-42,-47,-54,-63,-73,-86,-100,-116,-133,-151,-170,-188,-206,-222,-235,-243,-246,-243,-234,-219,-201,-179,-156,-133,-113,-97,-85,-79,-78,-81,-87,-95,-103,-109,-112,-112,-109,-103,-95,-85,-76,-66,-56,-46,-36,-27,-19,-11,-5,0,3,6,9,11,14,16,18,21,24,27,30,32,34,34,34,34,33,32,30,27,21,14,4,-7,-19,-30,-37,-41,-39,-32,-22,-10,1,78,25,23,5,-247,35,-14,-20,-44,-31,-49,-55,-58,-49,-43,-44,-74,-69,-60,-61,-6,-17,-27,-36,-44,-50,-54,-57,-59,-59,-60,-60,-61,-63,-66,-70,-74,-78,-81,-82,-82,-81,-78,-74,-70,-66,-61,-57,-53,-49,-45,-41,-38,-35,-33,-30,-28,-25,-20,-14,-7,0,10,21,33,46,60,73,87,100,113,124,134,142,148,152,155,158,160,162,164,166,168,172,176,182,190,200,212,226,242,259,276,293,310,325,338,350,361,370,378,386,392,397,400,402,401,399,397,395,397,401,410,422,438,456,474,493,510,525,538,548,556,561,565,566,565,562,559,554,550,545,539,532,524,516,507,498,489,480,471,462,452,440,427,412,394,375,355,334,314,295,277,259,243,227,211,195,179,164,150,137,125,114,104,94,85,76,67,57,47,36,23,10,-4,-21,-39,-58,-78,-98,-115,-130,-141,-148,-151,-150,-145,-139,-132,-124,-118,-113,-110,-110,-112,-116,-121,-127,-133,-138,-144,-149,-154,-160,-166,-173,-180,-187,-195,-201,-207,-210,-211,-209,-205,-199,-189,-177,-162,-143,-122,-100,-78,-58,-41,-30,-25,-26,-32,-42,-55,-69,-82,-93,-102,-110,-116,-121,-125,-129,-133,-135,-136,-135,-132,-127,-121,-114,-106,-100,-94,-88,-84,-80,-77,-75,-74,-75,-77,-81,-87,-95,-105,-116,-128,-140,-152,-161,-167,-170,-169,-167,-164,-161,-159,-158,-160,-163,-168,-174,-180,-186,-192,-198,-203,-208,-212,-215,-217,-219,-219,-217,-213,-207,-198,-188,-176,-164,-153,-144,-138,-134,-133,-134,-137,-141,-145,-150,-156,-163,-171,-179,-188,-197,-204,-209,-213,-214,-214,-213,-213,-213,-214,-216,-218,-220,-221,-220,-217,-212,-205,-195,-185,-173,-161,-149,-138,-128,-119,-114,-111,-112,-118,-127,-138,-151,-164,-175,-182,-184,-180,-171,-158,-143,-127,-113,-102,-96,-96,-101,-110,-121,-131,-140,-145,-147,-144,-138,-130,-120,-110,-101,-94,-90,-88,-88,-91,-95,-99,-103,-106,-109,-110,-111,-113,-116,-120,-124,-129,-132,-133,-132,-127,-120,-110,-99,-88,-77,-68,-62,-60,-62,-67,-75,-85,-95,-103,-108,-110,-109,-105,-99,-93,-88,-86,-88,-94,-104,-116,-129,-141,-151,-158,-161,-161,-157,-150,-142,-130,-117,-102,-86,-69,-53,-40,-31,-28,-31,-40,-55,-75,-97,-119,-139,-156,-169,-175,-176,-170,-158,-140,-118,-91,-62,-33,-5,20,42,60,74,83,88,88,84,78,69,59,48,38,28,19,13,8,7,8,10,14,17,20,20,17,13,7,2,-2,-6,-8,-8,-8,-8,-8,-9,-11,-14,-18,-22,-27,-33,-39,-47,-58,-71,-85,-101,-117,-132,-142,-147,-145,-136,-120,-99,-76,-53,-32,-15,-4,2,5,5,2,-1,-6,-12,-20,-30,-41,-53,-65,-75,-83,-88,-89,-87,-84,-82,-83,-89,-102,-122,-150,-182,-217,-252,-283,-307,-323,-328,-322,-304,-277,-241,-199,-154,-110,-68,-30,0,26,45,60,69,74,76,75,72,67,61,54,46,37,27,18,10,3,-2,-5,-7,-7,-5,-3,0,5,12,19,26,32,36,36,33,28,20,12,5,1,0,0,2,5,8,12,15,17,20,23,27,33,39,47,54,61,67,70,70,66,58,47,32,15,-3,-23,-43,-62,-78,-90,-97,-99,-94,-84,-70,-54,-38,-25,-15,-9,-7,-9,-13,-19,-26,-33,-39,-44,-47,-48,-48,-44,-38,-30,-21,-12,-3,2,7,8,8,6,3,0,-2,-4,-5,-6,-8,-10,-15,-24,-36,-51,-69,-86,-102,-115,-123,-127,-125,-120,-111,-101,-88,-73,-56,-37,-15,7,31,54,75,92,104,110,111,107,99,90,81,71,62,54,45,37,29,21,13,6,1,-3,-4,-4,-2,1,7,14</Data>
					</WaveformSegment>
					<WaveformSegment Time="2021-09-27T20:53:33.000+12:00">
						<SampleRate>1000</SampleRate>
						<DataResolution>1.0000</DataResolution>
						<Data>21,28,34,37,38,36,32,27,20,13,6,0,-4,-7,-10,112,93,30,-66,-71,-3,21,38,29,25,3,-25,-30,-21,6,-3,-70,-80,-48,24,4,13,23,34,42,46,46,39,27,11,-8,-29,-49,-66,-78,-84,-82,-74,-60,-42,-21,0,21,41,61,80,99,118,137,155,173,188,202,213,221,226,227,226,223,219,213,206,200,194,190,186,184,182,182,181,181,179,176,171,167,163,161,162,167,176,189,206,225,244,263,281,297,310,321,329,334,337,338,336,333,328,323,320,318,320,326,336,352,372,395,420,446,471,494,514,532,549,564,578,590,601,610,616,618,619,617,614,611,610,611,612,615,618,621,622,620,617,612,604,595,586,577,569,562,556,550,543,533,521,507,492,477,464,453,445,439,433,427,417,403,385,361,334,304,273,241,211,183,157,134,114,96,79,63,49,36,24,16,10,6,5,4,4,3,1,-2,-6,-12,-18,-26,-33,-41,-48,-54,-60,-64,-67,-70,-73,-78,-83,-91,-101,-111,-122,-131,-138,-143,-146,-147,-148,-148,-149,-148,-146,-141,-134,-124,-113,-100,-88,-77,-69,-64,-63,-68,-78,-91,-106,-120,-131,-136,-134,-125,-109,-88,-63,-37,-12,12,32,49,59,63,60,49,33,13,-8,-29,-47,-59,-66,-65,-59,-48,-35,-21,-7,5,15,24,30,33,34,31,26,19,11,1,-8,-19,-30,-41,-51,-61,-71,-79,-88,-95,-101,-108,-114,-120,-127,-135,-141,-147,-150,-150,-147,-140,-131,-123,-115,-112,-113,-120,-133,-152,-176,-202,-229,-253,-273,-287,-294,-294,-286,-273,-255,-233,-209,-184,-159,-135,-113,-93,-77,-64,-55,-48,-43,-39,-36,-32,-28,-24,-19,-15,-12,-11,-12,-15,-20,-25,-29,-32,-35,-36,-38,-40,-44,-49,-55,-61,-65,-66,-64,-58,-49,-39,-28,-18,-11,-8,-7,-10,-15,-22,-28,-35,-42,-48,-54,-60,-68,-76,-84,-94,-103,-112,-120,-125,-127,-125,-119,-109,-97,-84,-70,-57,-45,-35,-28,-22,-18,-15,-14,-15,-16,-18,-21,-24,-28,-34,-42,-54,-70,-90,-115,-143,-172,-201,-225,-242,-249,-247,-233,-210,-180,-145,-109,-74,-42,-14,9,29,45,58,67,74,79,80,77,70,58,41,19,-7,-38,-72,-107,-141,-173,-201,-223,-238,-242,-235,-216,-187,-148,-103,-54,-6,38,77,110,134,151,160,163,162,158,152,145,138,130,120,108,93,77,58,39,21,6,-4,-11,-14,-14,-11,-6,-2,2,5,9,13,17,21,26,31,36,39,41,41,39,35,28,21,12,4,-3,-9,-15,-19,-23,-27,-31,-35,-39,-42,-45,-46,-46,-45,-41,-36,-30,-24,-18,-14,-11,-10,-10,-13,-17,-22,-28,-35,-42,-48,-53,-57,-59,-62,-67,-73,-83,-96,-109,-121,-129,-131,-125,-111,-90,-65,-39,-14,8,26,41,51,58,62,64,64,62,60,58,56,53,49,43,35,24,8,-12,-36,-63,-92,-118,-139,-153,-157,-152,-137,-114,-87,-58,-30,-5,15,32,44,52,55,53,48,39,28,16,5,-3,-10,-15,-18,-20,-25,-35,-50,-74,-105,-143,-184,-226,-264,-292,-309,-309,-294,-263,-218,-163,-103,-41,16,66,107,137,156,164,164,156,143,126,106,85,64,43,25,10,0,-7,-11,-14,-17,-20,-24,-28,-31,-31,-28,-20,-7,8,27,46,64,79,90,96,97,95,90,83,74,64,55,45,35,25,17,9,1,-5,-12,-19,-25,-31,-37,-41,-45,-47,-49,-50,-51,-52,-53,-53,-52,-49,-46,-41,-37,-33,-33,-35,-42,-54,-68,-86,-104,-121,-137,-150,-160,-168,-174,-178,-182,-184,-185,-184,-181,-174,-163,-146,-124,-98,-70,-41,-14,9,28,41,49,52,52,49,44,39,35,31,28,26,25,24,22,20,18,15,12,9,7,5,161,112,107,67,-147,156,129,161,181,173,182,182,165,165,196,184,197,193,182,182,1,-1,-5,-11,-20,-32,-44,-56,-67,-74,-78,-77,-73,-66,-59,-52,-47,-44,-42,-42,-43,-45,-45,-46,-45,-42,-38,-33,-27,-19,-11,-3,5,13,20,25,26,23,16,5,-8,-22,-35,-45,-49,-46,-35,-18,4,30,59,87,115,140,163,184,203,219,233,246,257,267,276,286,296,306,317,330,343,357,370,384,396,406,414,420,423,425,425,426,427,428,431,435,441,448,458,468,479,489,498,505,510,512,512,510,507,502,496,489,483,477,473,473,478,488,502,519,538,556,570,580,585,585,580,571,558,542,522,499,471,440,406,372,339,311,289,276,272,274,282,292,300,304,303,297,285,268,248,224,196,165,130,93,55,19,-13,-40,-59,-71,-74,-70,-61,-47,-30,-14,0,12,20,24,23,18,10,0,-11,-23,-35,-45,-53,-58,-60,-60,-58,-56,-54,-53,-53,-55,-58,-62,-66,-69,-70,-69,-67,-63,-59,-55,-51,-49,-48,-48,-48,-49,-50,-52,-54,-56,-58,-60,-63,-64,-66,-67,-69,-71,-73,-75,-76,-77,-78,-78,-79,-81,-85,-92,-99,-107,-114,-118,-120,-118,-114,-110,-105,-102,-100,-99,-100,-102,-104,-106,-109,-110,-112,-115,-119,-126,-136,-151,-172,-197,-225</Data>
					</WaveformSegment>
					<WaveformSegment Time="2021-09-27T20:53:34.000+12:00">
						<SampleRate>1000</SampleRate>
						<DataResolution>1.0000</DataResolution>
						<Data>-255,-282,-303,-314,-314,-301,-278,-247,-212,-176,-142,-113,-89,-70,-55,-43,-37,-36,-42,-56,-80,-115,-158,-209,-264,-319,-369,-411,-440,-455,-454,-439,-411,-372,-327,-278,-228,-179,-133,-91,-53,-21,4,24,37,45,47,43,36,25,11,-3,-20,-36,-51,-63,-71,-74,-72,-66,-57,-48,-39,-33,-31,-33,-39,-49,-63,-78,-94,-109,-121,-130,-134,-134,-130,-123,-116,-110,-105,-103,-102,-102,-101,-99,-94,-87,-79,-70,-63,-58,-57,-58,-63,-70,-79,-89,-102,-116,-131,-146,-161,-173,-183,-188,-190,-187,-181,-171,-159,-145,-129,-114,-99,-86,-74,-63,-54,-47,-42,-38,-36,-36,-39,-43,-50,-58,-69,-81,-95,-110,-126,-140,-152,-159,-160,-154,-141,-122,-100,-76,-53,-33,-18,-7,-2,0,-2,-7,-12,-19,-26,-32,-36,-37,-35,-28,-18,-5,10,26,41,53,62,65,63,56,45,31,15,0,-14,-27,-38,-47,-53,-57,-59,-59,-56,-51,-44,-35,-23,-11,2,15,28,38,46,49,48,43,34,22,8,-6,-19,-31,-38,-42,-41,-37,-30,-23,-15,-8,-2,3,10,18,27,35,43,49,51,50,46,38,27,13,-3,-21,-40,-58,-74,-86,-94,-95,-91,-80,-64,-45,-25,-5,12,25,35,40,41,39,36,32,28,24,20,17,13,9,4,0,-6,-12,-18,-22,-24,-25,-24,-22,-19,-17,-16,-17,-19,-22,-26,-30,-32,-33,-31,-27,-22,-17,-13,-10,-10,-13,-21,-33,-48,-67,-89,-110,-130,-146,-156,-158,-152,-138,-118,-93,-66,-39,-15,6,22,34,41,43,42,39,35,32,31,32,35,39,43,46,47,47,46,44,42,39,35,30,23,15,7,-2,-11,-19,-25,-28,-28,-24,-18,-10,-1,7,16,23,28,33,36,40,44,49,54,59,62,64,62,57,48,35,19,0,-22,-45,-67,-87,-102,-110,-112,-107,-95,-79,-61,-42,-25,-11,1,11,20,30,41,52,63,73,81,85,85,80,70,57,41,25,9,-5,-16,-24,-29,-31,-30,-26,-21,-14,-6,1,9,17,26,35,44,52,58,64,67,68,67,63,59,52,44,35,24,12,-1,-16,-32,-49,-64,-76,-83,-85,-81,-73,-60,-45,-30,-16,-4,6,13,18,21,20,16,9,0,-11,-26,-42,-61,-81,-103,-126,-150,-175,-199,-222,-243,-260,-272,-276,-271,-258,-235,-206,-173,-139,-106,-79,-58,-44,-36,89,115,175,248,217,199,315,281,281,243,209,187,143,124,130,152,157,190,219,205,67,89,108,122,130,133,130,123,112,99,85,70,54,40,25,11,-2,-18,-35,-53,-70,-85,-94,-95,-86,-66,-38,-2,37,76,112,140,160,171,174,170,162,151,139,127,118,111,107,108,111,117,125,134,143,151,158,165,173,183,194,207,222,237,251,264,272,277,277,272,263,250,235,220,206,195,188,186,190,200,215,235,260,289,319,351,382,410,435,454,467,473,472,465,453,437,420,403,388,379,376,380,392,411,434,460,485,508,528,543,554,562,567,570,570,567,562,553,542,528,511,493,472,450,427,404,383,366,353,346,345,351,361,374,389,403,413,419,418,412,399,382,361,337,312,286,259,232,203,173,143,114,87,64,45,30,20,14,12,13,17,22,28,35,41,46,50,52,52,50,47,43,37,31,24,16,8,-1,-11,-22,-34,-45,-56,-67,-76,-84,-88,-90,-89,-86,-83,-80,-78,-78,-80,-81,-81,-79,-74,-65,-55,-43,-33,-25,-21,-22,-28,-39,-53,-68,-83,-96,-106,-111,-112,-110,-106,-102,-97,-94,-91,-87,-83,-76,-66,-52,-36,-18,0,16,29,39,44,44,41,36,28,21,14,8,3,-1,-5,-9,-13,-17,-21,-24,-28,-32,-35,-37,-39,-41,-42,-42,-43,-43,-44,-45,-46,-47,-47,-48,-49,-50,-52,-53,-55,-57,-58,-58,-59,-58,-58,-58,-58,-58,-59,-61,-63,-66,-70,-74,-78,-81,-85,-88,-89,-89,-88,-85,-81,-76,-71,-65,-60,-57,-55,-55,-58,-62,-67,-74,-80,-85,-90,-93,-95,-95,-95,-95,-95,-95,-96,-98,-100,-103,-106,-109,-112,-114,-115,-116,-117,-117,-117,-118,-117,-117,-116,-114,-112,-110,-107,-104,-101,-97,-94,-91,-88,-86,-84,-82,-80,-78,-76,-73,-70,-66,-64,-62,-61,-62,-63,-65,-67,-70,-72,-75,-76,-78,-80,-81,-81,-81,-80,-78,-76,-73,-70,-67,-64,-61,-58,-55,-53,-50,-47,-44,-41,-38,-34,-31,-28,-25,-24,-23,-25,-28,-34,-42,-51,-61,-71,-79,-85,-88,-87,-81,-72,-61,-48,-35,-23,-13,-6,0,2,4,4,5,5,5,5,6,8,8,8,7,4,0,-5,-13,-22,-32,-43,-52,-61,-68,-74,-78,-82,-85,-86,-86,-83,-78,-69,-58,-45,-32,-20,-10,-2,2,5,6,7,8,9,10,12,15,18,21,23,24,24,23,22,20,19,18,17,16,14,12,10,7,4,2,1,0,0,1,3,5,8,11,13,14,13,9,4,-2,-10,-18,-26,-33,-39,-43,-47,-50,-54,-61,-72,-85,-102,-120,-138,-154,-166,-172,-172,-164,-152,-136,-119,-103,-90,-82,-79,-82,-89,-100,-111,-122,-129,-133,-132,-125,-113,-98,-81,-64,-47</Data>
					</WaveformSegment>
					<WaveformSegment Time="2021-09-27T20:53:35.000+12:00">
						<SampleRate>1000</SampleRate>
						<DataResolution>1.0000</DataResolution>
						<Data>-31,-18,-5,5,15,24,32,40,46,51,55,59,62,65,67,69,71,71,70,68,65,59,52,42,31,19,7,-4,-15,-25,-32,-36,-38,-36,-32,-26,-17,-8,2,13,23,32,39,43,44,44,41,38,33,28,23,17,10,2,-6,-17,-30,-45,-62,-79,-96,-112,-125,-134,-139,-139,-136,-129,-122,-115,-110,-108,-109,-114,-121,-130,-139,-147,-152,-154,-151,-144,-133,-118,-101,-81,-61,-41,-24,-11,-2,2,1,-6,-20,-41,-69,-103,-143,-185,-228,-268,-301,-324,-335,-333,-316,-289,-252,-209,-164,-121,-80,-45,-15,9,30,48,64,78,91,102,112,120,124,126,124,118,108,95,80,62,44,26,8,-7,-20,-31,-40,-45,-48,-48,-46,-44,-40,-37,-34,-32,-30,-30,-30,-31,-33,-35,-39,-43,-46,-49,-51,-52,-52,-52,-52,-52,-53,-55,-57,-60,-64,-67,-70,-73,-76,-79,-84,-89,-98,-110,-126,-147,-173,-201,-232,-262,-290,-313,-329,-336,-334,-323,-304,-280,-253,-225,-198,-174,-154,-139,-129,-74,-67,-85,-137,-219,-260,-103,-89,-72,-59,-97,-123,-146,-125,-141,-116,-132,-119,-75,-118,-94,-86,-77,-66,-56,-45,-35,-27,-22,-19,-19,-23,-29,-36,-44,-51,-56,-58,-56,-50,-40,-28,-13,1,17,33,48,62,74,83,90,94,95,95,91,85,76,64,49,32,13,-6,-27,-48,-67,-84,-97,-105,-108,-106,-98,-86,-69,-48,-26,-1,24,50,78,105,132,158,182,203,221,235,244,249,249,243,232,218,200,180,161,145,133,127,129,139,156,180,208,240,274,307,338,365,387,402,409,409,400,386,368,348,330,317,309,309,316,328,346,365,384,400,414,424,431,436,439,443,446,448,449,447,441,432,419,403,386,368,350,334,318,305,292,279,266,252,236,219,199,177,154,131,108,86,66,49,34,22,11,2,-5,-12,-19,-26,-33,-40,-49,-58,-70,-82,-96,-111,-125,-137,-148,-156,-161,-164,-164,-161,-157,-151,-144,-136,-129,-123,-118,-114,-111,-107,-102,-96,-88,-78,-67,-55,-43,-33,-24,-18,-14,-14,-17,-21,-27,-33,-38,-42,-45,-47,-49,-51,-54,-59,-64,-70,-73,-75,-74,-70,-64,-57,-51,-46,-44,-45,-48,-54,-61,-68,-75,-81,-85,-87,-87,-86,-84,-81,-79,-77,-75,-73,-71,-70,-70,-70,-71,-73,-76,-79,-82,-85,-87,-88,-87,-84,-79,-72,-65,-58,-51,-47,-46,-47,-52,-58,-66,-73,-80,-85,-88,-89,-89,-89,-87,-86,-85,-84,-84,-84,-84,-85,-86,-86,-86,-85,-83,-81,-78,-74,-71,-68,-67,-66,-68,-71,-75,-81,-87,-93,-98,-101,-103,-104,-103,-101,-98,-95,-91,-86,-81,-76,-71,-68,-66,-67,-70,-75,-81,-87,-93,-99,-104,-108,-110,-112,-114,-115,-116,-117,-118,-118,-118,-118,-117,-115,-113,-111,-108,-104,-100,-95,-90,-84,-80,-77,-76,-77,-80,-85,-91,-96,-101,-104,-105,-104,-101,-98,-95,-93,-91,-89,-88,-88,-87,-86,-84,-82,-79,-75,-71,-66,-61,-56,-51,-48,-46,-47,-49,-52,-56,-61,-64,-67,-68,-67,-65,-62,-59,-56,-53,-50,-48,-46,-44,-42,-40,-38,-36,-34,-32,-30,-28,-26,-25,-22,-20,-17,-13,-9,-6,-2,2,7,12,17,21,23,24,21,16,8,-2,-12,-23,-31,-37,-39,-39,-36,-32,-27,-22,-18,-16,-15,-15,-15,-15,-14,-11,-7,-2,3,7,11,13,13,10,7,3,-1,-5,-8,-11,-13,-15,-15,-15,-15,-14,-12,-11,-9,-7,-6,-6,-7,-9,-11,-14,-18,-21,-24,-26,-27,-27,-27,-26,-24,-22,-21,-19,-17,-16,-13,-11,-8,-4,0,5,10,15,18,19,18,13,7,0,-7,-13,-19,-23,-25,-26,-26,-24,-23,-21,-20,-19,-18,-18,-18,-19,-19,-19,-18,-15,-11,-7,-3,0,2,3,2,0,-4,-9,-15,-21,-27,-32,-37,-40,-42,-43,-43,-43,-43,-41,-39,-36,-33,-29,-26,-23,-21,-20,-20,-20,-21,-21,-21,-21,-19,-17,-14,-12,-10,-8,-7,-6,-5,-3,-1,2,6,9,12,14,13,10,5,0,-8,-15,-21,-25,-28,-29,-29,-28,-26,-25,-24,-23,-22,-21,-20,-19,-18,-18,-18,-18,-18,-18,-17,-15,-11,-6,-1,4,8,11,11,10,7,4,0,-4,-7,-11,-15,-18,-22,-25,-29,-32,-35,-37,-38,-38,-36,-32,-28,-22,-16,-10,-6,-4,-4,-7,-11,-17,-24,-30,-35,-39,-42,-43,-43,-44,-44,-44,-44,-44,-44,-43,-42,-41,-39,-38,-36,-34,-33,-33,-34,-35,-37,-39,-41,-41,-41,-38,-34,-28,-22,-17,-13,-12,-13,-17,-23,-29,-36,-41,-46,-49,-50,-50,-49,-48,-47,-45,-44,-44,-44,-45,-46,-48,-50,-53,-56,-59,-62,-96,-103,-94,-67,-97,-130,45,29,-2,-30,-54,-57,-85,-92,-120,-121,-104,-101,-92,-91,-60,-58,-56,-54,-52,-50,-47,-45,-43,-40,-37,-34,-31,-29,-28,-28,-28,-30,-32,-34,-36,-37,-38,-38,-37,-35,-31,-25,-18,-9,0,7,14,20,23,24,23,23,22,22,24,27,32,37,44,51,58,66,74,83,93,102,112,122,131,139,147,154,160,167,173,179,185,191,198,206,216,227,240,255,269,284,296,306,312,315,315,315,314,315,318</Data>
					</WaveformSegment>
					<WaveformSegment Time="2021-09-27T20:53:36.000+12:00">
						<SampleRate>1000</SampleRate>
						<DataResolution>1.0000</DataResolution>
						<Data>323,329,338,347,357,366,376,384,392,398,404,409,414,418,423,429,435,441,449,456,463,468,471,471,468,464,458,452,445,439,433,427,422,418,413,409,404,398,392,386,378,370,362,352,342,332,320,308,295,281,265,249,231,214,196,179,164,150,139,131,125,120,116,112,106,97,86,72,56,39,23,8,-6,-18,-29,-39,-49,-57,-65,-71,-77,-81,-85,-87,-88,-88,-86,-83,-79,-74,-69,-64,-61,-60,-61,-64,-69,-75,-82,-88,-92,-95,-95,-94,-92,-89,-87,-86,-86,-86,-88,-90,-92,-94,-95,-96,-97,-97,-97,-96,-95,-94,-93,-93,-93,-93,-93,-93,-93,-92,-90,-87,-83,-79,-76,-75,-76,-79,-84,-90,-96,-102,-106,-108,-109,-109,-108,-107,-105,-104,-103,-103,-103,-103,-103,-102,-99,-96,-91,-87,-83,-81,-81,-83,-87,-93,-100,-106,-110,-114,-116,-116,-116,-116,-116,-116,-116,-115,-115,-114,-112,-111,-109,-108,-108,-109,-110,-112,-113,-115,-116,-116,-116,-115,-112,-109,-105,-101,-98,-96,-96,-98,-103,-108,-115,-122,-129,-134,-138,-141,-143,-143,-143,-141,-138,-134,-128,-123,-118,-114,-113,-114,-117,-121,-127,-133,-139,-143,-146,-147,-147,-147,-146,-145,-144,-143,-142,-141,-139,-138,-136,-135,-134,-133,-132,-130,-129,-127,-125,-124,-122,-120,-118,-117,-116,-116,-117,-119,-120,-122,-124,-124,-125,-123,-121,-116,-110,-103,-96,-89,-84,-81,-81,-83,-87,-92,-97,-102,-106,-109,-110,-109,-107,-104,-100,-96,-91,-84,-77,-70,-63,-56,-52,-50,-50,-53,-57,-62,-67,-70,-72,-73,-72,-70,-67,-63,-59,-56,-52,-49,-46,-44,-42,-40,-38,-37,-36,-35,-34,-32,-30,-29,-27,-26,-25,-25,-25,-25,-26,-26,-25,-22,-19,-14,-9,-5,-2,-1,-2,-6,-11,-18,-25,-31,-36,-39,-40,-39,-37,-35,-33,-31,-30,-29,-29,-29,-29,-29,-29,-29,-29,-29,-28,-28,-28,-26,-25,-22,-18,-14,-10,-6,-4,-4,-6,-10,-16,-23,-30,-36,-41,-44,-45,-45,-43,-42,-40,-38,-36,-34,-32,-30,-29,-28,-28,-28,-29,-31,-33,-35,-38,-40,-42,-42,-40,-37,-33,-28,-23,-20,-20,-22,-26,-33,-41,-50,-58,-64,-69,-72,-72,-71,-69,-65,-61,-57,-51,-46,-40,-34,-28,-24,-21,-20,-22,-26,-32,-39,-47,-53,-58,-61,-63,-63,-61,-59,-56,-54,-52,-50,-48,-46,-45,-45,-45,-45,-45,-45,-44,-44,-44,-43,-43,-42,-40,-38,-34,-28,-22,-15,-8,-3,0,1,0,-3,-7,-13,-18,-23,-28,-31,-33,-35,-37,-38,-38,-39,-39,-39,-39,-39,-39,-40,-41,-42,-41,-40,-37,-32,-26,-19,-12,-7,-4,-4,-6,-11,-17,-24,-31,-36,-40,-42,-43,-42,-41,-39,-38,-36,-34,-33,-31,-29,-28,-26,-25,-24,-24,-24,-24,-24,-25,-26,-26,-26,-25,-24,-21,-17,-12,-8,-6,-5,-6,-9,-14,-20,-25,-30,-34,-36,-37,-37,-36,-36,-36,-36,-36,-37,-38,-39,-39,-40,-39,-39,-39,-39,-39,-39,-39,-39,-39,-39,-38,-38,-37,-36,-36,-36,-37,-38,-40,-42,-44,-45,-47,-47,-46,-43,-39,-33,-28,-23,-20,-20,-21,-26,-32,-40,-48,-55,-62,-68,-72,-115,-110,-104,-135,-185,-24,-59,-96,-94,-112,-119,-102,-101,-109,-97,-98,-95,-101,-101,-104,-57,-50,-41,-32,-25,-18,-14,-13,-14,-18,-23,-28,-33,-36,-38,-38,-36,-32,-29,-25,-22,-19,-17,-15,-13,-11,-9,-7,-4,-1,2,7,14,23,34,45,56,66,74,79,82,83,83,83,85,87,92,98,104,112,119,126,133,141,149,157,165,173,182,191,199,207,215,222,229,236,243,251,259,268,278,288,299,311,324,337,351,365,379,392,403,412,418,422,425,427,428,430,432,434,438,442,446,450,454,459,465,472,480,490,500,510,519,526,530,531,527,521,512,502,491,481,472,465,459,455,451,449,446,443,439,434,427,418,407,395,381,366,350,332,314,294,275,255,235,217,200,184,170,158,149,141,135,129,123,116,107,95,80,64,47,30,13,-1,-15,-27,-37,-46,-53,-59,-63,-66,-69,-70,-72,-74,-75,-76,-77,-77,-77,-77,-76,-75,-73,-72,-69,-67,-63,-60,-57,-54,-53,-54,-57,-63,-69,-76,-83,-88,-93,-96,-97,-98,-97,-96,-94,-93,-91,-90,-89,-88,-88,-88,-88,-88,-88,-88,-88,-88,-88,-89,-89,-89,-90,-90,-90,-90,-91,-92,-92,-92,-90,-86,-82,-77,-72,-68,-66,-67,-70,-75,-81,-88,-94,-100,-104,-107,-108,-108,-108,-107,-106,-105,-103,-102,-101,-100,-99,-98,-97,-97,-97,-97,-97,-97,-97,-98,-100,-101,-102,-102,-101,-99,-95,-91,-86,-83,-80,-80,-83,-86,-91,-96,-100,-103,-105,-106,-106,-105,-104,-103,-102,-100,-98,-96,-93,-90,-88,-86,-86,-87,-91,-96,-103,-111,-118,-126,-132,-138,-142,-145,-147,-147,-146,-144,-142,-139,-137,-135,-133,-131,-129,-127,-126,-125,-124,-123,-122,-122,-122,-122,-123,-125,-126,-126,-126,-124,-121,-117,-111,-106,-102,-99,-98,-100,-103,-109,-115,-120,-125,-127,-128,-128,-126,-123,-120,-116,-113,-110,-107,-104,-102,-99,-97,-94,-91,-88,-85,-82,-80,-78,-76,-74,-72,-70,-69,-68,-66,-64,-63,-61,-59,-57,-55</Data>
						<Annotation Type="Pacer">
							<Sample Offset="605" />
						</Annotation>
					</WaveformSegment>
					<WaveformSegment Time="2021-09-27T20:53:37.000+12:00">
						<SampleRate>1000</SampleRate>
						<DataResolution>1.0000</DataResolution>
						<Data>-53,-51,-48,-46,-43,-38,-33,-28,-22,-17,-14,-13,-15,-18,-24,-30,-36,-41,-44,-45,-45,-43,-40,-37,-34,-31,-29,-27,-26,-24,-22,-20,-17,-14,-12,-10,-8,-7,-7,-7,-7,-7,-7,-7,-7,-7,-8,-9,-10,-11,-13,-14,-16,-17,-18,-17,-16,-13,-9,-4,1,5,8,9,7,3,-2,-9,-15,-21,-26,-28,-29,-29,-28,-27,-26,-24,-23,-22,-21,-20,-19,-17,-16,-15,-15,-15,-15,-16,-18,-19,-20,-21,-21,-22,-22,-22,-22,-22,-22,-22,-23,-24,-25,-25,-24,-22,-18,-14,-9,-6,-4,-5,-9,-16,-23,-32,-39,-45,-49,-50,-50,-47,-44,-41,-37,-35,-33,-31,-31,-31,-31,-31,-31,-31,-30,-29,-28,-27,-27,-27,-27,-27,-27,-27,-27,-27,-28,-29,-30,-31,-31,-32,-31,-31,-30,-30,-29,-29,-29,-30,-30,-30,-29,-27,-24,-20,-15,-11,-7,-5,-5,-8,-13,-19,-26,-33,-39,-44,-47,-48,-47,-44,-41,-37,-34,-30,-27,-25,-23,-23,-23,-23,-24,-26,-27,-28,-28,-26,-24,-20,-15,-10,-5,-2,0,0,-2,-7,-13,-20,-26,-32,-36,-39,-40,-39,-37,-35,-32,-30,-28,-26,-25,-24,-24,-23,-23,-21,-18,-14,-9,-5,-1,0,0,0,-3,-8,-14,-19,-24,-28,-30,-30,-30,-27,-25,-21,-18,-16,-14,-13,-12,-12,-12,-13,-13,-14,-13,-13,-13,-12,-11,-10,-9,-7,-4,-1,1,4,6,7,6,3,-1,-6,-11,-16,-19,-22,-24,-24,-24,-23,-22,-20,-19,-18,-18,-18,-18,-18,-19,-19,-18,-16,-13,-9,-5,-2,0,0,-1,-4,-9,-14,-20,-25,-29,-32,-34,-34,-34,-33,-32,-31,-30,-29,-28,-27,-27,-27,-26,-26,-26,-26,-26,-26,-26,-26,-26,-26,-26,-26,-26,-26,-27,-27,-28,-29,-30,-31,-32,-33,-34,-33,-32,-29,-25,-20,-15,-11,-9,-9,-11,-15,-22,-29,-36,-42,-47,-50,-51,-50,-48,-45,-43,-41,-39,-38,-38,-38,-38,-37,-37,-37,-37,-112,-107,-100,-134,-159,-212,-10,-9,6,-24,-48,-85,-109,-118,-121,-130,-164,-117,-130,-128,-43,-44,-45,-45,-45,-45,-44,-43,-42,-40,-39,-37,-36,-34,-33,-32,-30,-28,-26,-24,-22,-20,-18,-16,-13,-11,-9,-6,-4,-2,0,4,8,13,18,25,32,41,50,61,73,85,96,106,114,119,122,122,121,119,118,118,120,125,131,140,149,159,169,178,188,196,205,212,220,227,234,241,248,256,264,273,282,293,306,320,335,350,365,378,388,396,402,405,407,408,410,412,416,420,426,432,439,446,452,459,464,470,475,480,484,488,492,495,497,499,501,501,501,500,498,495,491,486,481,475,469,462,456,450,443,437,431,424,417,410,403,395,386,375,362,345,325,302,277,251,226,201,179,160,143,129,116,105,95,85,75,66,57,48,38,28,18,8,-2,-12,-22,-31,-40,-48,-55,-61,-66,-71,-75,-79,-81,-82,-82,-80,-77,-72,-67,-63,-60,-60,-62,-67,-73,-81,-88,-94,-99,-101,-101,-100,-98,-95,-93,-91,-90,-89,-89,-89,-89,-89,-89,-88,-88,-88,-87,-87,-86,-86,-86,-86,-86,-86,-87,-86,-86,-85,-84,-84,-84,-85,-86,-87,-88,-88,-86,-83,-78,-72,-66,-62,-59,-59,-62,-67,-73,-81,-88,-94,-99,-102,-104,-105,-105,-105,-104,-103,-102,-100,-99,-98,-97,-96,-95,-94,-93,-93,-93,-93,-93,-93,-93,-94,-95,-97,-98,-99,-99,-100,-100,-100,-100,-100,-100,-101,-102,-102,-100,-98,-94,-89,-84,-80,-79,-80,-83,-87,-93,-100,-106,-111,-115,-118,-119,-119,-119,-118,-117,-116,-116,-116,-116,-116,-116,-116,-116,-116,-117,-118,-119,-119,-118,-115,-111,-106,-101,-96,-92,-91,-93,-97,-103,-110,-118,-125,-130,-133,-134,-133,-132,-130,-128,-126,-125,-124,-124,-124,-125,-125,-125,-125,-124,-123,-122,-121,-120,-119,-118,-116,-115,-112,-110,-107,-104,-101,-99,-97,-96,-95,-95,-94,-94,-94,-93,-93,-92,-90,-89,-87,-86,-85,-84,-83,-80,-77,-72,-66,-59,-53,-49,-46,-46,-49,-53,-59,-65,-70,-74,-76,-76,-73,-70,-65,-60,-56,-52,-49,-46,-44,-43,-42,-42,-41,-41,-40,-39,-38,-37,-35,-34,-32,-31,-30,-30,-30,-30,-30,-29,-29,-29,-28,-27,-25,-22,-18,-13,-9,-4,-2,-1,-3,-7,-13,-21,-28,-35,-40,-43,-45,-45,-43,-42,-40,-38,-36,-34,-32,-31,-30,-28,-27,-26,-25,-25,-25,-25,-26,-28,-29,-30,-31,-31,-31,-31,-30,-29,-28,-26,-25,-25,-25,-25,-25,-26,-26,-27,-27,-28,-28,-29,-30,-31,-30,-29,-26,-22,-17,-13,-10,-9,-11,-15,-21,-29,-36,-43,-49,-52,-54,-55,-54,-52,-51,-50,-49,-48,-48,-48,-48,-48,-48,-47,-47,-47,-46,-46,-46,-45,-44,-43,-42,-41,-40,-40,-40,-40,-40,-40,-40,-40,-41,-41,-41,-41,-41,-41,-41,-41,-41,-41,-41,-40,-38,-35,-31,-25,-20,-16,-13,-13,-15,-19,-25,-32,-38,-43,-46,-47,-46,-44,-41,-38,-35,-33,-32,-31,-31,-32,-33,-34,-35,-35,-36,-35,-35,-34,-33,-32,-30,-29,-27,-26,-25,-25,-25,-25,-25,-25,-25,-25,-24,-24,-23,-22,-21,-20,-20,-20,-20,-20,-20,-21,-21,-21,-21,-22</Data>
						<Annotation Type="Pacer">
							<Sample Offset="379" />
						</Annotation>
					</WaveformSegment>
					<WaveformSegment Time="2021-09-27T20:53:38.000+12:00">
						<SampleRate>1000</SampleRate>
						<DataResolution>1.0000</DataResolution>
						<Data>-23,-24,-24,-25,-24,-24,-23,-22,-21,-20,-19,-18,-16,-13,-9,-5,-1,1,2,2,0,-3,-8,-13,-18,-22,-25,-26,-25,-24,-22,-21,-20,-19,-19,-19,-20,-20,-20,-20,-19,-18,-16,-14,-13,-11,-10,-9,-9,-10,-12,-14,-16,-18,-21,-22,-24,-24,-25,-24,-24,-23,-22,-21,-21,-21,-21,-21,-21,-21,-21,-21,-21,-21,-21,-22,-22,-23,-24,-25,-26,-26,-24,-22,-18,-12,-7,-3,0,1,0,-2,-6,-12,-18,-25,-30,-34,-37,-39,-39,-39,-38,-37,-37,-37,-37,-37,-37,-38,-39,-39,-40,-41,-41,-41,-41,-41,-41,-40,-39,-38,-37,-36,-35,-35,-35,-35,-35,-35,-36,-37,-38,-38,-39,-39,-39,-40,-40,-40,-40,-40,-40,-41,-43,-44,-45,-45,-46,-45,-45,-44,-44,-44,-44,-44,-45,-46,-46,-46,-46,-45,-44,-44,-44,-44,-44,-44,-44,-44,-44,-44,-44,-100,-98,-102,-292,-6,-41,-90,-100,-106,-115,-122,-116,-115,-114,-108,-100,-87,-80,-79,-107,-44,-44,-43,-42,-40,-39,-37,-36,-35,-35,-35,-35,-36,-37,-38,-38,-38,-36,-34,-31,-27,-24,-20,-17,-14,-11,-9,-6,-3,0,4,8,13,18,24,30,36,42,49,57,64,72,79,85,91,97,102,108,114,120,127,135,143,151,159,167,175,183,191,198,205,211,217,223,229,235,243,251,259,269,279,290,300,311,320,330,340,349,359,369,378,387,396,404,412,420,427,432,438,442,447,451,456,462,468,473,478,483,486,488,489,490,490,491,491,490,490,489,488,486,482,478,472,467,461,455,450,445,441,436,430,423,415,405,393,380,366,351,335,318,301,284,265,247,229,211,194,178,163,149,136,124,112,101,90,79,68,57,45,34,23,13,3,-5,-14,-23,-32,-41,-49,-57,-64,-70,-75,-78,-80,-81,-80,-78,-77,-75,-74,-74,-74,-75,-77,-78,-79,-79,-79,-80,-80,-80,-79,-79,-79,-78,-78,-77,-76,-75,-74,-74,-74,-74,-74,-74,-75,-75,-76,-76,-76,-77,-78,-79,-81,-83,-84,-86,-88,-89,-89,-89,-88,-87,-85,-83,-81,-79,-78,-78,-79,-80,-81,-83,-85,-86,-86,-87,-86,-86,-85,-84,-83,-82,-81,-81,-81,-81,-81,-82,-83,-84,-84,-85,-85,-86,-87,-88,-89,-90,-90,-91,-90,-90,-90,-89,-88,-87,-87,-87,-87,-87,-88,-90,-91,-93,-95,-96,-97,-97,-98,-97,-97,-96,-95,-95,-95,-95,-95,-96,-98,-100,-102,-104,-106,-108,-110,-111,-113,-113,-113,-113,-112,-111,-110,-109,-109,-109,-109,-109,-109,-109,-109,-109,-109,-108,-107,-106,-106,-106,-106,-108,-110,-113,-117,-120,-123,-125,-127,-129,-129,-128,-126,-124,-121,-119,-117,-115,-113,-111,-109,-108,-108,-107,-107,-106,-106,-105,-104,-103,-103,-103,-103,-103,-103,-103,-103,-103,-102,-102,-101,-99,-98,-95,-93,-90,-87,-85,-83,-81,-80,-80,-79,-79,-79,-78,-77,-76,-74,-72,-69,-66,-63,-61,-60,-59,-58,-58,-57,-56,-54,-53,-51,-49,-47,-46,-45,-44,-43,-42,-41,-39,-36,-33,-29,-26,-24,-22,-21,-20,-20,-19,-18,-17,-16,-14,-13,-12,-12,-12,-13,-14,-15,-16,-17,-17,-17,-17,-17,-16,-15,-15,-15,-15,-16,-18,-20,-23,-25,-28,-29,-30,-30,-29,-27,-26,-24,-22,-21,-20,-20,-20,-21,-22,-24,-25,-26,-27,-27,-27,-27,-26,-25,-24,-22,-21,-20,-19,-19,-19,-20,-21,-22,-23,-23,-23,-23,-22,-22,-22,-22,-23,-24,-26,-27,-28,-28,-28,-28,-27,-27,-27,-27,-27,-28,-29,-30,-31,-32,-32,-32,-32,-31,-30,-29,-29,-29,-28,-28,-28,-27,-27,-27,-26,-26,-26,-26,-26,-27,-29,-31,-33,-35,-38,-39,-41,-42,-42,-43,-43,-43,-44,-44,-44,-44,-43,-42,-41,-41,-41,-41,-41,-41,-41,-42,-43,-43,-43,-44,-44,-44,-44,-43,-43,-42,-41,-40,-39,-38,-38,-37,-37,-36,-35,-34,-33,-32,-30,-29,-29,-29,-30,-31,-32,-33,-34,-34,-35,-34,-34,-33,-32,-31,-29,-28,-26,-25,-23,-22,-21,-21,-22,-23,-25,-27,-30,-33,-35,-38,-40,-42,-44,-45,-45,-45,-45,-43,-42,-40,-38,-37,-35,-33,-32,-30,-28,-27,-26,-25,-23,-22,-20,-19,-19,-19,-20,-21,-23,-25,-27,-29,-31,-32,-34,-36,-37,-39,-39,-40,-39,-39,-38,-37,-35,-34,-32,-31,-31,-30,-30,-29,-28,-27,-27,-27,-27,-27,-27,-27,-28,-28,-28,-28,-27,-26,-25,-24,-24,-24,-24,-23,-23,-23,-22,-21,-21,-21,-21,-22,-24,-26,-28,-30,-31,-33,-33,-33,-33,-33,-33,-34,-35,-37,-39,-42,-44,-47,-48,-50,-50,-50,-49,-48,-46,-44,-43,-41,-39,-37,-36,-36,-37,-38,-40,-42,-45,-48,-50,-52,-53,-54,-55,-54,-54,-53,-52,-51,-50,-49,-47,-46,-44,-43,-41,-39,-37,-35,-34,-33,-33,-34,-36,-38,-39,-41,-42,-43,-43,-42,-41,-39,-38,-37,-36,-36,-37,-39,-42,-45,-48,-52,-56,-116,-88,-74,-101,-184,7,-29,-65,-66,-85,-98,-99,-79,-99,-109,-98,-90,-100,-107,-98,-53,-49,-45,-42,-39,-38,-37,-37,-37,-37,-37,-37,-36,-34,-33,-31,-29,-28,-25,-23,-21,-18,-16,-13,-9,-6,-2,0,4,8,12,16,20,25,31</Data>
						<Annotation Type="Pacer">
							<Sample Offset="173" />
						</Annotation>
						<Annotation Type="Pacer">
							<Sample Offset="945" />
						</Annotation>
					</WaveformSegment>
				</Waveform>
				<Waveform Type="ECG_II" Units="uV">
					<Filters>
						<HighPass>0.5</HighPass>
						<LowPass>35</LowPass>
						<BaselineDriftRemoval>ON</BaselineDriftRemoval>
					</Filters>
					<WaveformSegment Time="2021-09-27T20:53:29.000+12:00">
						<SampleRate>1000</SampleRate>
						<DataResolution>1.0000</DataResolution>
						<Data>-902,-949,-999,-1052,-1106,-1163,-1222,-1282,-1345,-1411,-1480,-1551,-1623,-1697,-1770,-1843,-1915,-1986,-2056,-2126,-2195,-2266,-2337,-2410,-2483,-2556,-2629,-2699,-2767,-2830,-2889,-2941,-2987,-3025,-3057,-3081,-3097,-3105,-3106,-3101,-3090,-3074,-3053,-3029,-3001,-2970,-2936,-2900,-2861,-2821,-2780,-2738,-2696,-2654,-2611,-2568,-2524,-2478,-2429,-2378,-2324,-2268,-2209,-2148,-2086,-2023,-1959,-1894,-1827,-1759,-1689,-1618,-1546,-1473,-1401,-1330,-1262,-1195,-1133,-1073,-1017,-964,-915,-868,-825,-785,-748,-714,-682,-652,-624,-597,-571,-545,-519,-492,-464,-435,-405,-375,-344,-312,-280,-248,-215,-183,-151,-119,-88,-58,-29,0,27,55,81,106,128,149,167,183,196,208,219,228,237,245,252,258,264,269,273,277,281,285,289,293,297,302,306,310,313,316,319,320,322,324,326,328,330,332,334,336,339,340,342,343,344,345,347,350,353,357,362,368,374,381,388,394,401,406,411,415,419,421,423,425,426,428,430,432,435,438,442,446,450,454,457,461,464,467,469,472,475,479,483,488,494,500,506,512,519,527,535,543,552,561,571,581,591,602,614,625,637,648,659,670,681,692,702,712,723,732,741,750,757,763,769,774,779,784,788,793,798,804,810,816,822,828,834,841,848,855,863,872,882,893,904,916,927,939,950,961,970,978,985,990,994,997,1001,1005,1010,1015,1022,1029,1037,1044,1052,1059,1065,1072,1077,1083,1088,1092,1096,1100,1104,1106,1108,1108,1107,1106,1104,1102,1100,1099,1098,1098,1097,1097,1096,1094,1091,1087,1082,1077,1071,1066,1060,1055,1050,1044,1039,1032,1025,1017,1009,999,988,977,965,953,941,930,919,909,900,891,882,873,863,853,841,829,815,800,784,768,752,736,721,707,693,680,668,655,641,627,611,596,580,564,548,533,519,505,492,479,466,454,441,429,417,406,395,385,375,365,355,345,335,324,314,304,293,282,272,262,252,243,234,225,216,207,199,191,184,177,172,167,164,161,158,155,151,148,144,140,137,133,129,126,123,121,120,119,119,118,118,117,116,115,115,115,115,115,115,115,115,114,113,111,109,107,104,101,98,95,93,91,90,90,90,91,93,95,97,98,100,100,100,100,99,98,97,96,95,95,94,94,93,92,92,92,92,92,92,93,95,96,97,97,97,97,96,95,93,92,92,92,92,91,91,91,90,89,89,89,90,92,94,97,100,101,102,102,100,98,96,94,92,91,91,91,91,91,90,90,89,88,88,88,88,89,90,92,93,94,95,95,95,93,91,88,85,83,82,81,81,82,84,85,85,85,85,83,81,78,75,72,70,68,67,67,67,68,68,68,68,67,67,67,68,70,72,74,75,77,77,77,77,76,75,73,71,69,66,64,62,61,60,60,60,61,61,61,61,59,57,55,53,51,49,48,48,48,48,48,48,49,49,49,49,48,47,45,44,42,41,39,38,38,38,38,38,38,38,39,40,41,41,41,42,41,41,40,39,37,36,34,33,31,30,30,30,30,31,33,34,35,35,35,34,32,31,29,27,25,24,23,23,23,23,23,23,23,22,21,20,20,20,20,21,22,24,25,25,26,25,25,24,23,22,20,19,18,17,17,16,16,15,14,12,11,9,8,8,9,10,11,12,13,13,14,14,15,15,16,17,18,19,19,19,19,18,17,15,13,11,9,9,9,10,12,14,18,21,23,25,26,26,26,24,23,20,18,15,13,11,9,7,7,7,7,9,11,13,15,17,18,19,20,20,21,21,21,21,21,20,20,20,19,19,19,18,18,18,17,17,17,16,15,14,14,14,14,14,14,14,14,14,14,14,15,16,17,17,17,18,18,17,17,16,15,14,13,12,10,8,7,5,4,4,5,6,8,10,13,16,18,20,20,20,18,16,14,11,9,7,5,4,3,3,4,6,7,9,10,11,12,12,12,12,11,10,9,8,7,6,6,6,6,6,6,5,5,4,3,2,1,1,1,1,1,1,1,1,1,0,-70,-55,-57,-38,109,181,-180,-147,-131,-134,-111,-102,-138,-116,-91,-84,-58,-67,-93,-88,-9,-11,-12,-13,-13,-13,-11,-10,-8,-6,-4,-2,-1,0,0,0,0,0,0,1,3,6,9,13,18,23,28,33,37,40,42,43,43,43,42,42,42,42,41,41,41,40,39,38,38,38,38,39,40,41,43,44,44,44,44,42,40,37,34,30,27,24,21,20,19,20,21,23,26,29,31,33,35,35,35,35,34,33,31,30,29,29,29,30,31,31,31,30,28,24,20,15,10,6,3,0,-85,-77,-115,-203,-192,34,-4,-45,-85,-113,-127,-139,-130,-127,-143,-144,-164,-167,-178,-187,-55,-68,-81,-94,-107,-118,-129,-140,-150,-161,-171,-180,-190,-199,-208,-217,-226,-236,-246,-257,-268,-279,-289,-300,-309,-319,-329,-340,-352,-367,-384,-404,-427,-453,-481,-511,-541,-570,-600,-630,-659,-690,-722,-756,-792</Data>
					</WaveformSegment>
					<WaveformSegment Time="2021-09-27T20:53:30.000+12:00">
						<SampleRate>1000</SampleRate>
						<DataResolution>1.0000</DataResolution>
						<Data>-831,-873,-918,-965,-1015,-1067,-1120,-1175,-1233,-1291,-1352,-1413,-1475,-1536,-1598,-1659,-1719,-1779,-1838,-1898,-1958,-2019,-2082,-2146,-2210,-2275,-2338,-2398,-2454,-2506,-2552,-2593,-2629,-2660,-2686,-2708,-2725,-2737,-2746,-2750,-2751,-2749,-2744,-2738,-2729,-2719,-2708,-2694,-2679,-2661,-2641,-2619,-2595,-2568,-2539,-2507,-2471,-2433,-2392,-2347,-2300,-2251,-2200,-2147,-2092,-2035,-1974,-1910,-1843,-1772,-1699,-1624,-1549,-1473,-1400,-1328,-1260,-1194,-1132,-1074,-1019,-967,-919,-875,-833,-794,-758,-725,-693,-664,-635,-607,-580,-551,-522,-492,-462,-431,-400,-369,-338,-306,-275,-242,-210,-177,-144,-111,-79,-47,-17,12,40,66,90,112,133,151,167,182,196,208,220,230,240,249,257,264,271,277,283,288,293,296,299,301,303,305,307,311,315,320,326,332,339,345,351,357,362,366,369,371,373,375,376,378,380,382,384,386,388,391,394,397,400,403,406,409,412,416,420,424,428,432,437,443,448,454,459,465,470,476,481,485,490,494,498,503,507,511,516,520,524,528,532,537,540,544,547,550,553,557,561,565,570,575,580,585,590,595,601,607,613,619,625,630,636,640,644,647,651,656,661,667,674,681,689,696,703,710,716,723,729,736,744,751,759,767,774,782,789,795,802,809,816,824,832,841,850,860,869,878,886,894,900,907,913,919,925,931,936,942,948,953,958,963,967,972,976,981,985,990,996,1002,1008,1013,1019,1023,1027,1029,1031,1033,1034,1034,1035,1035,1035,1036,1036,1037,1037,1037,1037,1035,1033,1029,1025,1021,1016,1010,1005,999,993,987,981,974,966,958,950,941,932,923,914,906,897,889,880,870,860,850,838,827,814,802,789,777,765,753,741,729,717,705,692,679,665,651,636,622,608,594,581,569,557,546,536,525,514,502,490,477,463,449,434,420,406,393,380,368,357,346,336,327,318,309,300,291,282,273,264,255,247,239,231,223,215,207,198,189,181,174,167,161,156,152,147,142,137,132,127,122,118,113,109,104,99,94,90,86,82,79,77,75,73,71,70,67,65,62,59,56,54,52,50,48,46,44,42,39,37,34,31,29,28,27,28,29,31,33,35,36,36,36,35,35,35,35,36,38,40,42,43,45,47,48,49,51,53,55,57,60,63,65,67,68,69,68,68,67,66,66,66,67,69,71,74,77,80,83,85,87,88,89,88,88,87,86,85,85,85,86,87,88,89,90,91,92,93,94,96,98,101,104,106,107,108,107,105,103,101,99,98,97,97,97,97,98,98,99,99,100,101,102,103,104,105,106,106,107,107,108,109,110,112,113,115,116,117,116,115,114,111,109,106,103,101,99,97,95,93,91,90,89,88,87,87,87,88,89,90,92,93,94,94,95,94,93,92,89,87,84,81,79,77,75,74,73,72,72,71,71,70,69,69,69,69,69,69,69,69,69,68,67,66,65,64,63,62,61,59,57,56,54,52,51,49,47,46,46,46,46,47,47,47,46,45,43,41,39,38,37,36,36,35,34,32,31,29,27,25,24,23,23,24,26,28,30,32,34,35,35,34,32,31,29,28,27,26,25,24,23,22,20,18,16,14,13,12,13,15,18,22,26,29,32,33,34,33,31,28,25,23,21,19,18,18,18,18,18,18,19,20,22,24,27,29,31,33,33,34,33,33,32,31,31,32,34,37,42,48,54,61,68,75,81,87,92,97,100,103,105,108,110,112,114,116,117,118,119,119,120,120,120,120,121,122,123,123,124,123,123,122,121,120,119,118,118,118,117,117,117,116,115,113,111,109,106,103,100,97,94,92,90,88,86,84,83,82,80,79,76,74,71,67,64,59,55,50,44,38,31,24,17,10,5,0,-2,-5,-7,-9,-9,-10,-9,-9,-8,-6,-5,-4,-4,-4,-4,-4,-4,-4,-4,-4,-4,-4,-4,-5,-7,-9,-12,-14,-16,-17,-18,-19,-19,-21,-23,-25,-29,-32,-35,-38,-40,-41,-41,-41,-39,-37,-34,-29,-24,-18,-12,-7,-2,0,2,4,5,5,6,7,8,10,12,14,16,18,19,18,17,14,10,5,1,-3,-7,-12,-15,-19,-22,-24,-26,-28,-29,-30,-31,-31,-31,-32,-32,-31,-30,-29,-27,-25,-23,-21,-19,-17,-16,-16,-146,-166,-132,-197,-195,-11,-70,-98,-108,-128,-130,-129,-168,-152,-170,-147,-142,-141,-157,-176,-45,-53,-63,-73,-84,-96,-107,-118,-129,-140,-151,-162,-174,-187,-200,-213,-227,-241,-254,-267,-280,-292,-304,-317,-329,-342,-355,-371,-389,-409,-432,-458,-485,-514,-544,-574,-603,-631,-658,-684,-710,-736,-764,-794,-827,-862,-901,-942,-985,-1032,-1081,-1133,-1187,-1244,-1303,-1365,-1429,-1495,-1561,-1628,-1695,-1761,-1827,-1893,-1959,-2027,-2097,-2169,-2244,-2321,-2399,-2476,-2551,-2623,-2689,-2750,-2805,-2853,-2895,-2932,-2963,-2988,-3007,-3021,-3030,-3033,-3031,-3026,-3015,-3000,-2981,-2957,-2928,-2895,-2859,-2820,-2779,-2736,-2692,-2647,-2601,-2553,-2503,-2450,-2396,-2339,-2281,-2220,-2158,-2094,-2029,-1963,-1895,-1826,-1757</Data>
					</WaveformSegment>
					<WaveformSegment Time="2021-09-27T20:53:31.000+12:00">
						<SampleRate>1000</SampleRate>
						<DataResolution>1.0000</DataResolution>
						<Data>-1686,-1614,-1543,-1472,-1401,-1332,-1265,-1200,-1136,-1074,-1015,-957,-902,-850,-800,-754,-711,-671,-634,-601,-569,-540,-513,-486,-460,-434,-408,-380,-352,-324,-294,-263,-230,-197,-162,-127,-92,-57,-24,6,35,62,88,112,136,158,180,201,222,241,259,276,291,305,316,326,335,342,349,355,362,368,374,381,388,394,400,404,408,412,415,417,420,424,428,432,436,439,443,447,450,453,455,457,460,462,465,468,471,475,478,482,485,489,493,497,502,508,514,520,526,532,538,542,546,550,552,555,557,559,562,564,567,571,575,579,583,588,593,598,604,610,616,622,628,633,639,644,648,653,657,661,665,669,673,677,681,684,688,691,694,698,703,709,717,726,735,745,755,764,771,778,783,787,790,793,796,799,804,809,816,824,833,842,851,859,867,873,879,884,890,897,904,912,921,931,940,948,956,962,968,973,979,985,992,1000,1009,1018,1026,1033,1039,1043,1047,1050,1052,1055,1058,1062,1066,1071,1077,1082,1088,1093,1097,1101,1105,1108,1111,1113,1116,1118,1121,1123,1124,1125,1125,1124,1123,1121,1118,1116,1114,1111,1107,1104,1099,1094,1089,1083,1077,1071,1064,1058,1050,1042,1034,1025,1016,1007,999,991,983,976,968,961,952,944,934,924,913,901,888,874,858,842,825,809,794,780,768,757,747,737,726,715,703,689,675,660,644,628,612,596,579,563,547,531,515,500,486,473,462,451,441,431,421,410,399,388,376,364,353,342,332,321,311,300,289,277,266,254,242,232,222,214,208,202,198,194,190,185,180,174,168,161,153,146,140,135,131,127,125,123,122,122,121,120,119,117,115,113,110,106,103,101,99,98,98,97,97,97,96,95,94,92,91,90,89,89,89,90,91,92,93,93,92,91,90,89,89,89,90,92,93,94,95,96,96,97,98,100,102,103,105,106,106,106,104,103,101,99,99,99,100,102,104,107,109,111,111,111,111,110,110,110,110,110,110,110,110,111,113,115,117,120,124,127,130,132,134,135,135,135,134,134,134,134,134,134,134,135,138,141,147,154,163,173,184,195,205,214,220,224,225,225,223,220,217,215,214,213,213,214,215,217,218,220,221,222,222,222,221,220,218,216,212,208,203,199,195,192,189,187,186,186,185,185,184,182,180,178,175,172,169,167,164,162,159,156,153,150,147,144,142,140,139,138,136,133,128,122,115,107,99,91,84,77,72,68,64,62,59,57,54,52,49,46,42,38,35,30,26,22,17,12,7,3,-1,-4,-7,-9,-10,-9,-8,-5,-2,1,6,10,14,18,22,25,27,29,30,30,30,29,27,26,24,21,19,16,13,11,9,8,7,8,10,12,15,18,20,22,23,23,23,22,21,21,21,22,24,26,28,31,32,33,34,34,34,33,31,28,25,20,15,10,5,0,-3,-150,-134,-113,-181,-167,56,5,-50,-91,-122,-119,-130,-174,-151,-155,-125,-134,-125,-137,-132,-23,-27,-32,-38,-44,-52,-60,-68,-76,-84,-93,-102,-113,-125,-139,-153,-169,-185,-201,-216,-231,-245,-259,-272,-285,-299,-313,-328,-346,-365,-387,-411,-438,-467,-498,-529,-561,-592,-623,-653,-684,-715,-747,-781,-817,-857,-899,-945,-992,-1042,-1094,-1149,-1206,-1266,-1328,-1393,-1460,-1528,-1595,-1661,-1725,-1787,-1847,-1906,-1965,-2025,-2087,-2151,-2217,-2284,-2352,-2419,-2485,-2547,-2606,-2659,-2707,-2748,-2783,-2811,-2833,-2849,-2860,-2865,-2867,-2865,-2860,-2853,-2844,-2833,-2821,-2807,-2791,-2773,-2753,-2731,-2708,-2683,-2657,-2630,-2600,-2567,-2530,-2489,-2444,-2394,-2341,-2285,-2226,-2165,-2103,-2039,-1974,-1907,-1839,-1767,-1694,-1619,-1542,-1466,-1389,-1314,-1241,-1171,-1104,-1041,-981,-926,-875,-828,-784,-745,-708,-675,-644,-615,-588,-561,-535,-508,-479,-449,-418,-385,-351,-316,-281,-245,-209,-174,-139,-106,-74,-44,-16,11,37,62,87,111,135,157,178,198,217,235,251,266,280,292,303,313,322,330,336,342,347,352,357,363,368,373,378,382,385,386,387,387,387,387,388,389,391,394,398,402,406,411,415,420,424,429,434,439,445,450,455,460,464,467,470,472,475,477,479,481,483,485,488,492,497,502,508,515,522,529,536,542,548,554,559,565,570,576,581,587,592,598,603,608,612,616,621,625,630,635,641,646,651,655,660,664,668,673,678,685,692,700,709,718,726,735,742,750,757,763,770,778,786,794,802,810,817,825,832,838,845,853,861,870,880,891,902,913,922,931,938,944,950,956,962,969,976,985,994,1004,1014,1024,1034,1043,1051,1058,1065,1071,1077,1083,1090,1097,1104,1110,1115,1119,1123,1126,1129,1132,1136,1140,1145,1151,1156,1162,1167,1170,1173,1175,1177,1177,1177,1177,1176,1174,1172,1169,1166,1163,1159,1155,1152,1147,1143,1139,1134,1129,1123,1116,1108,1099,1090,1080,1071,1061,1051,1041,1031,1022,1013,1003,993,982,970,958,945,931,916,901,886,870,854,837,820,803,786,769,753,737,721,705,689,672,656,639,622,604,587,570,553,537,523,509,495,482,469,456,443</Data>
					</WaveformSegment>
					<WaveformSegment Time="2021-09-27T20:53:32.000+12:00">
						<SampleRate>1000</SampleRate>
						<DataResolution>1.0000</DataResolution>
						<Data>430,418,406,395,385,375,365,354,344,333,321,309,296,283,270,257,244,232,221,210,200,190,181,172,164,156,149,143,137,132,128,123,119,114,110,105,99,93,88,82,77,72,69,67,65,64,63,60,57,53,49,44,40,36,33,31,29,27,26,26,26,26,26,26,26,27,29,30,32,34,35,36,37,36,35,33,31,28,24,21,19,17,15,14,14,14,15,16,17,19,20,21,21,21,20,19,18,16,15,15,15,16,17,19,20,21,22,22,22,23,23,24,26,28,29,31,31,31,30,28,27,26,25,25,26,27,28,30,32,34,37,40,44,47,51,55,57,60,61,61,62,62,63,65,68,73,78,84,91,98,105,113,120,127,134,139,144,147,149,149,148,147,146,146,146,147,148,149,151,152,153,153,151,150,147,145,143,141,140,140,140,141,142,143,144,144,144,144,143,141,139,138,136,133,131,128,124,121,117,113,110,107,106,106,107,108,108,107,105,101,95,88,80,71,62,53,44,35,27,20,13,9,5,4,3,3,4,6,7,8,8,7,5,2,0,-5,-10,-15,-20,-25,-28,-30,-31,-29,-26,-21,-16,-11,-7,-3,0,2,5,9,13,17,20,24,28,31,33,35,35,34,32,29,25,20,15,11,7,5,5,7,10,14,18,22,24,24,23,21,18,15,13,12,12,-116,-99,-102,-119,-550,30,-35,-78,-108,-131,-153,-165,-157,-149,-133,-169,-170,-182,-168,-187,0,-5,-12,-19,-26,-34,-42,-51,-60,-71,-83,-95,-108,-122,-135,-148,-160,-172,-183,-193,-203,-213,-223,-233,-244,-256,-270,-286,-304,-325,-349,-376,-405,-436,-469,-503,-536,-570,-602,-634,-665,-695,-727,-759,-793,-829,-868,-911,-956,-1005,-1057,-1112,-1170,-1231,-1294,-1358,-1424,-1490,-1555,-1617,-1678,-1736,-1793,-1848,-1903,-1959,-2017,-2077,-2139,-2203,-2269,-2334,-2397,-2458,-2515,-2566,-2612,-2652,-2686,-2714,-2737,-2755,-2767,-2775,-2780,-2781,-2780,-2777,-2773,-2767,-2758,-2747,-2734,-2719,-2702,-2683,-2662,-2640,-2617,-2592,-2566,-2537,-2506,-2471,-2433,-2391,-2345,-2295,-2242,-2187,-2129,-2069,-2007,-1942,-1875,-1805,-1732,-1657,-1581,-1505,-1430,-1356,-1284,-1214,-1148,-1084,-1025,-969,-917,-870,-825,-784,-746,-711,-678,-646,-616,-586,-556,-526,-494,-461,-427,-392,-357,-322,-287,-253,-219,-185,-151,-117,-84,-50,-18,14,45,75,103,129,153,175,195,212,228,243,256,268,279,288,296,302,308,313,318,324,330,336,342,349,354,360,364,368,372,375,378,380,382,384,386,388,390,394,398,402,408,414,420,425,431,437,442,448,452,457,460,463,465,465,466,466,467,469,472,477,483,490,498,506,513,521,527,533,538,542,546,548,550,550,550,550,550,551,552,556,560,567,575,584,593,603,612,620,627,634,639,644,649,654,659,664,669,673,678,682,686,690,695,701,709,718,728,738,748,757,765,772,777,782,786,791,797,804,814,825,837,850,863,876,888,898,907,915,921,928,934,940,946,952,959,966,974,983,992,1002,1011,1021,1030,1038,1047,1055,1064,1073,1082,1091,1100,1107,1114,1119,1122,1125,1127,1129,1132,1135,1140,1145,1151,1157,1162,1166,1168,1169,1168,1166,1163,1160,1158,1156,1153,1151,1148,1145,1142,1139,1136,1134,1131,1129,1127,1123,1120,1115,1110,1104,1098,1091,1085,1078,1070,1062,1054,1044,1034,1022,1010,996,982,967,952,938,924,910,896,882,869,855,841,827,812,798,784,770,757,744,732,719,705,690,674,656,637,618,599,581,564,549,535,522,510,499,487,474,461,446,431,415,401,387,375,364,355,346,337,329,320,310,301,290,280,269,258,247,236,226,216,206,196,186,177,168,161,154,148,143,139,135,131,127,123,119,116,114,112,110,108,106,105,104,103,101,99,96,93,88,84,79,73,68,63,59,56,54,53,54,56,58,62,66,69,73,75,77,77,75,73,68,63,57,51,45,41,37,35,34,35,37,39,43,47,51,55,58,60,60,59,57,55,52,50,48,47,46,46,47,48,49,50,51,53,54,56,57,59,61,62,63,64,66,68,70,72,75,77,80,81,82,82,80,77,73,69,64,60,56,53,51,50,49,49,50,52,54,56,59,60,62,62,63,62,62,61,60,59,58,58,59,62,66,70,75,81,86,90,93,96,97,97,97,97,97,97,98,99,101,104,108,112,116,120,124,128,131,134,138,142,147,153,159,164,169,173,176,177,176,173,169,165,160,155,150,146,142,138,134,130,126,123,121,119,117,116,116,116,116,117,117,117,116,114,112,109,106,102,98,94,91,89,87,87,87,87,87,87,85,83,80,76,72,67,62,56,50,42,35,27,19,12,7,3,1,0,-1,-2,-3,-6,-10,-15,-21,-28,-35,-42,-48,-54,-58,-61,-63,-64,-65,-65,-64,-63,-62,-60,-57,-53,-49,-44,-39,-33,-28,-22,-18,-14,-11,-9,-7,-7,-7,-7,-8,-10,-12,-14,-17,-21,-24,-27,-30,-33,-35,-37</Data>
					</WaveformSegment>
					<WaveformSegment Time="2021-09-27T20:53:33.000+12:00">
						<SampleRate>1000</SampleRate>
						<DataResolution>1.0000</DataResolution>
						<Data>-38,-38,-37,-35,-31,-27,-23,-19,-15,-13,-11,-10,-11,-12,-13,-221,-206,-244,-312,-396,-154,-195,-242,-297,-286,-268,-288,-281,-278,-256,-284,-307,-302,-301,-294,-57,-66,-75,-83,-92,-100,-108,-118,-128,-139,-152,-166,-181,-196,-211,-225,-239,-253,-266,-278,-291,-304,-317,-330,-343,-356,-369,-383,-399,-416,-436,-458,-483,-510,-539,-569,-601,-633,-665,-697,-730,-762,-796,-830,-867,-906,-948,-994,-1043,-1095,-1151,-1209,-1270,-1332,-1397,-1462,-1527,-1592,-1655,-1717,-1778,-1837,-1894,-1951,-2009,-2067,-2126,-2188,-2250,-2313,-2376,-2437,-2496,-2553,-2606,-2656,-2702,-2744,-2781,-2815,-2844,-2867,-2885,-2898,-2905,-2907,-2906,-2901,-2893,-2883,-2870,-2855,-2838,-2820,-2800,-2780,-2759,-2738,-2716,-2692,-2667,-2640,-2609,-2575,-2536,-2493,-2446,-2394,-2338,-2280,-2218,-2154,-2089,-2022,-1954,-1885,-1814,-1741,-1668,-1593,-1518,-1443,-1370,-1299,-1231,-1165,-1103,-1044,-988,-936,-887,-841,-797,-756,-718,-683,-650,-620,-592,-565,-539,-513,-486,-457,-426,-393,-358,-321,-283,-245,-207,-170,-134,-100,-68,-39,-12,11,34,55,75,94,111,126,140,153,165,177,188,198,209,219,229,238,246,254,260,266,271,275,279,283,287,291,294,298,302,307,313,320,327,335,342,350,357,362,367,371,375,378,380,383,387,391,395,400,406,412,418,423,429,435,440,446,451,456,460,465,469,473,478,482,487,492,498,503,509,514,520,526,532,539,546,553,561,569,576,584,591,597,604,609,615,619,623,627,630,633,636,640,645,652,659,667,674,682,688,693,697,700,702,704,707,711,717,724,733,743,753,764,774,784,794,803,813,823,832,842,851,859,868,876,885,893,902,912,922,933,946,960,975,990,1003,1016,1026,1034,1040,1044,1048,1052,1056,1060,1065,1070,1076,1083,1090,1098,1107,1116,1125,1134,1141,1147,1150,1152,1151,1149,1146,1143,1141,1140,1140,1141,1144,1147,1151,1154,1157,1158,1158,1156,1153,1148,1143,1138,1134,1130,1127,1125,1122,1119,1116,1112,1107,1100,1093,1084,1075,1066,1057,1048,1039,1030,1022,1013,1003,993,983,971,959,946,932,918,903,887,872,856,841,827,813,799,784,769,753,736,717,697,675,654,633,612,594,577,562,548,537,526,515,505,494,481,468,454,440,425,410,395,381,367,353,340,328,316,304,293,283,273,263,253,242,232,222,212,202,193,185,177,169,160,151,142,132,122,113,104,97,92,89,88,89,90,91,92,92,90,87,82,76,71,66,61,58,55,53,51,50,49,47,45,44,43,42,43,45,48,52,56,60,63,65,66,65,63,60,56,53,49,45,41,38,35,32,29,27,26,25,26,28,31,34,37,40,41,42,42,41,40,39,39,39,40,41,42,43,43,41,40,38,36,35,35,35,36,37,39,41,43,45,47,50,54,57,60,63,65,67,68,69,69,69,69,68,67,66,65,65,65,66,67,68,68,68,68,67,65,64,63,62,62,63,64,66,67,67,67,67,66,65,63,62,61,61,61,61,62,64,66,68,71,75,80,85,90,96,101,105,109,113,116,118,120,122,123,123,124,124,124,124,124,125,126,128,131,134,137,139,141,141,142,142,142,142,143,144,145,146,145,144,141,137,132,127,122,118,114,111,109,107,106,106,107,109,112,116,121,125,128,129,128,125,119,110,101,90,80,71,62,54,47,41,35,29,23,17,11,6,1,-2,-6,-10,-14,-17,-19,-21,-22,-23,-24,-26,-28,-32,-36,-40,-46,-52,-58,-64,-69,-74,-77,-78,-77,-75,-72,-67,-61,-55,-49,-42,-36,-30,-24,-18,-12,-7,-3,0,1,2,2,2,1,0,-1,-2,-3,-4,-5,-5,-6,-7,-8,-10,-12,-15,-18,-21,-23,-25,-25,-25,-24,-224,-210,-201,-212,-587,-20,-152,-167,-200,-216,-234,-216,-191,-208,-190,-230,-204,-225,-241,-199,-30,-33,-37,-42,-48,-55,-64,-74,-85,-98,-112,-127,-143,-160,-178,-195,-213,-230,-245,-259,-272,-282,-290,-297,-304,-310,-319,-329,-344,-361,-383,-407,-434,-464,-495,-527,-560,-592,-625,-657,-690,-724,-760,-797,-836,-878,-922,-967,-1014,-1063,-1114,-1166,-1220,-1277,-1336,-1397,-1460,-1523,-1587,-1650,-1712,-1772,-1830,-1887,-1942,-1997,-2053,-2109,-2167,-2226,-2286,-2345,-2404,-2462,-2518,-2571,-2621,-2668,-2710,-2748,-2781,-2808,-2829,-2845,-2854,-2859,-2859,-2856,-2850,-2842,-2832,-2821,-2809,-2795,-2780,-2764,-2747,-2728,-2708,-2687,-2663,-2638,-2609,-2577,-2541,-2500,-2453,-2402,-2345,-2285,-2221,-2155,-2088,-2021,-1953,-1886,-1818,-1749,-1679,-1608,-1535,-1462,-1388,-1316,-1245,-1177,-1112,-1052,-996,-944,-897,-854,-814,-778,-744,-712,-683,-654,-625,-597,-567,-537,-505,-473,-439,-405,-369,-333,-297,-260,-223,-187,-152,-117,-85,-54,-25,1,26,49,71,92,111,129,145,162,177,193,208,222,236,249,260,271,280,287,295,301,307,312,317,322,326,329,332,335,337,339,340,341,342,344,346,349,353,357,361,366,371,376,382,388,394,400,406,412,417,422,426,430,433,436,439,441,443,444,445,447,449,451,453,456,460,464,468,472,477,483,489,496,503,510,517,523,527,531,534,537,539,542,545,549,553</Data>
					</WaveformSegment>
					<WaveformSegment Time="2021-09-27T20:53:34.000+12:00">
						<SampleRate>1000</SampleRate>
						<DataResolution>1.0000</DataResolution>
						<Data>558,564,570,577,584,591,599,607,614,621,628,635,641,648,655,662,670,678,687,696,705,714,722,730,736,742,748,753,759,766,773,781,790,800,810,820,832,844,856,870,885,900,915,930,943,955,966,975,982,989,995,1001,1008,1016,1026,1037,1048,1060,1071,1080,1088,1094,1099,1102,1105,1106,1108,1109,1110,1111,1113,1115,1117,1120,1123,1127,1130,1132,1134,1135,1135,1133,1131,1128,1126,1124,1123,1124,1125,1126,1128,1128,1126,1123,1118,1110,1100,1089,1077,1065,1051,1037,1023,1008,993,978,964,951,939,928,919,912,907,901,896,890,883,875,866,855,841,826,809,790,771,751,731,711,692,674,656,638,620,603,585,568,552,536,521,506,492,477,462,446,430,414,397,380,364,348,333,318,304,290,277,264,252,240,228,217,207,198,189,181,174,166,159,152,145,137,130,122,115,109,102,96,89,82,75,68,61,54,48,42,37,32,27,23,18,12,7,0,-6,-13,-20,-25,-29,-31,-31,-30,-28,-25,-21,-18,-15,-12,-10,-10,-10,-11,-13,-16,-19,-22,-25,-28,-31,-34,-37,-41,-45,-49,-52,-56,-58,-59,-58,-55,-51,-46,-41,-35,-30,-26,-24,-24,-25,-27,-30,-32,-34,-34,-33,-31,-27,-23,-19,-15,-12,-10,-9,-8,-8,-9,-10,-11,-12,-13,-15,-18,-22,-27,-32,-37,-42,-46,-49,-52,-53,-53,-52,-50,-49,-46,-44,-41,-38,-34,-31,-27,-23,-20,-16,-13,-9,-6,-3,-1,0,-1,-2,-5,-9,-14,-18,-23,-26,-29,-32,-33,-34,-33,-31,-28,-24,-19,-13,-7,-1,4,9,14,19,23,27,29,31,33,35,36,38,39,40,41,43,45,47,49,52,55,57,59,60,61,61,61,62,63,66,70,74,80,86,91,96,100,101,101,99,95,90,85,79,75,71,68,67,66,65,64,63,63,63,65,67,70,74,78,83,88,91,94,94,93,89,84,76,68,58,48,38,30,23,18,15,14,13,13,12,11,9,6,3,0,-3,-7,-10,-13,-15,-18,-20,-22,-24,-26,-29,-31,-33,-34,-34,-34,-33,-33,-33,-35,-37,-40,-44,-48,-52,-54,-56,-55,-53,-49,-43,-36,-30,-23,-18,-14,-12,-12,-13,-15,-18,-20,-22,-22,-22,-22,-20,-19,-17,-15,-14,-12,-10,-8,-6,-3,-1,0,3,6,10,14,18,23,27,52,39,46,34,-47,-164,103,-3,-20,-25,-19,-11,-39,-26,-3,18,-4,3,27,23,10,0,-10,-23,-36,-50,-65,-81,-97,-113,-129,-144,-160,-174,-188,-200,-212,-224,-234,-244,-254,-263,-272,-281,-291,-303,-316,-332,-352,-375,-401,-431,-464,-500,-539,-579,-621,-662,-702,-739,-773,-805,-834,-864,-894,-928,-966,-1009,-1059,-1116,-1178,-1245,-1316,-1391,-1468,-1549,-1630,-1713,-1797,-1879,-1960,-2039,-2116,-2190,-2263,-2334,-2405,-2475,-2545,-2615,-2683,-2751,-2817,-2881,-2940,-2995,-3045,-3090,-3129,-3161,-3188,-3208,-3221,-3227,-3226,-3219,-3204,-3183,-3157,-3125,-3088,-3048,-3006,-2961,-2915,-2868,-2822,-2776,-2731,-2688,-2645,-2603,-2560,-2517,-2471,-2424,-2374,-2321,-2266,-2207,-2146,-2081,-2014,-1945,-1874,-1802,-1728,-1655,-1581,-1507,-1434,-1362,-1291,-1221,-1153,-1087,-1024,-964,-907,-853,-801,-752,-705,-660,-617,-577,-539,-505,-475,-447,-422,-399,-378,-357,-336,-313,-289,-263,-234,-203,-169,-133,-94,-55,-15,25,65,103,139,171,199,223,243,259,272,283,292,302,312,323,336,350,364,377,390,400,408,414,418,421,424,428,432,437,442,447,452,455,458,460,462,464,466,469,473,477,481,485,489,494,498,503,507,511,516,521,527,535,543,553,563,574,583,592,599,605,610,613,615,618,620,623,627,631,636,641,647,652,658,663,667,671,675,678,681,683,686,689,693,699,706,715,724,734,745,756,768,781,794,807,819,830,840,848,854,859,863,865,867,869,871,873,876,879,884,890,898,908,919,931,944,957,969,980,989,997,1003,1008,1012,1015,1017,1019,1021,1022,1023,1025,1028,1032,1037,1043,1050,1058,1067,1078,1089,1103,1117,1133,1149,1165,1179,1193,1204,1214,1221,1228,1233,1237,1240,1243,1246,1249,1251,1253,1255,1257,1258,1257,1256,1253,1249,1246,1242,1238,1235,1233,1232,1233,1236,1239,1243,1248,1253,1257,1260,1261,1260,1258,1254,1249,1243,1236,1228,1219,1209,1198,1186,1172,1158,1144,1130,1116,1102,1089,1077,1065,1053,1041,1030,1020,1010,1000,991,982,973,964,954,944,932,920,908,895,881,867,854,841,828,816,804,792,780,767,753,739,724,708,692,677,662,647,633,621,609,597,587,577,567,557,546,535,523,511,498,486,474,463,454,445,438,431,424,417,409,400,390,380,370,362,354,347,341,336,331,327,323,318,312,306,299,293,287,282,277,273,269,266,263,260,257,254,251,249,249,249,251,254,258,262,268,274,280,285,290,293,294,294,292,289,285,280,275,271,268,266,266,268,272,278,284,292,299,307,313,318,322,324,323,320,315,308,299,290,280,271,262,256,250,247,245,245,246,248,251,255,259,264,268,272,276,279,283,286,289,292,295,297,300,301,302,303,303,302,300,297,293,288,283,277,273,269,267</Data>
					</WaveformSegment>
					<WaveformSegment Time="2021-09-27T20:53:35.000+12:00">
						<SampleRate>1000</SampleRate>
						<DataResolution>1.0000</DataResolution>
						<Data>267,268,271,275,280,284,288,291,292,293,293,293,293,293,294,295,297,299,300,302,302,301,299,295,290,284,276,269,261,253,246,239,234,230,228,228,230,234,239,245,250,255,259,261,263,265,266,267,269,271,274,278,281,284,287,289,290,290,290,291,292,294,296,299,302,304,305,305,304,303,302,301,300,301,302,305,308,312,316,320,324,328,332,335,337,340,341,342,342,340,337,332,325,317,309,301,293,286,280,276,274,273,274,277,281,285,291,297,303,308,313,316,317,316,313,308,301,294,286,279,273,269,265,262,259,255,250,243,234,224,214,202,191,180,170,161,153,147,143,140,139,139,139,140,141,141,141,141,139,137,133,129,123,116,109,101,94,88,84,82,81,81,83,85,87,90,91,93,95,96,98,99,101,102,102,102,101,99,97,94,91,88,85,83,81,79,77,75,73,71,69,67,65,64,63,62,60,59,57,173,200,183,186,122,-10,309,264,254,241,197,230,214,244,238,239,216,214,216,206,37,32,26,20,14,8,3,-1,-6,-11,-18,-26,-35,-46,-58,-71,-84,-97,-110,-123,-134,-145,-156,-166,-176,-187,-199,-213,-229,-248,-269,-293,-319,-348,-379,-412,-447,-483,-518,-553,-587,-619,-650,-681,-712,-743,-777,-813,-851,-892,-936,-982,-1032,-1086,-1144,-1205,-1271,-1339,-1410,-1482,-1554,-1626,-1696,-1764,-1831,-1897,-1963,-2030,-2099,-2170,-2244,-2319,-2394,-2468,-2540,-2607,-2670,-2727,-2778,-2823,-2861,-2892,-2915,-2930,-2937,-2936,-2928,-2913,-2893,-2869,-2842,-2812,-2781,-2748,-2714,-2679,-2643,-2607,-2570,-2532,-2493,-2453,-2410,-2366,-2319,-2269,-2217,-2161,-2103,-2043,-1981,-1917,-1852,-1785,-1718,-1652,-1586,-1521,-1458,-1396,-1335,-1276,-1217,-1159,-1101,-1043,-986,-930,-876,-825,-776,-730,-689,-650,-615,-584,-554,-527,-502,-479,-456,-433,-411,-388,-364,-339,-311,-281,-248,-215,-181,-148,-117,-90,-65,-44,-25,-7,9,27,46,66,87,108,129,150,169,187,203,216,227,236,243,247,251,254,258,262,267,273,279,285,290,295,298,300,301,302,303,305,308,312,316,321,325,328,331,332,332,333,335,339,346,355,365,376,387,396,403,406,407,405,402,397,393,390,387,386,387,389,392,396,401,407,413,419,425,432,438,444,450,454,458,461,464,466,469,474,479,487,496,507,519,532,544,554,561,565,566,566,564,562,561,561,564,568,574,581,588,595,601,607,613,618,623,629,636,644,653,663,674,685,697,708,718,726,733,738,742,744,746,748,751,754,759,765,772,780,789,798,807,817,827,838,850,861,872,882,889,894,896,897,896,895,895,895,896,899,902,906,910,914,918,921,924,928,931,935,938,942,945,949,953,957,961,966,970,975,978,979,978,973,966,956,945,934,924,915,908,903,898,894,890,885,880,873,865,856,847,837,828,820,813,806,800,794,789,783,776,767,756,743,728,712,695,678,661,646,632,618,606,594,582,570,558,547,535,523,510,498,485,472,460,448,436,424,412,400,389,378,368,358,348,338,328,319,311,304,297,290,282,273,261,246,227,206,183,160,139,120,105,93,85,80,77,75,73,71,69,66,62,59,56,54,53,53,53,53,53,51,47,42,35,27,19,12,7,2,0,-3,-4,-6,-8,-9,-10,-10,-10,-11,-11,-12,-14,-16,-18,-21,-23,-25,-27,-27,-28,-27,-26,-24,-21,-18,-14,-10,-6,-3,0,3,6,10,15,21,26,31,35,36,35,32,26,20,14,8,3,0,-1,-2,-1,0,2,5,8,10,12,12,12,11,11,11,12,15,19,24,30,37,43,47,49,48,46,41,35,29,23,18,14,11,9,8,8,9,12,15,20,26,32,40,48,56,64,71,78,83,88,93,98,103,109,115,121,127,133,139,144,149,154,158,164,170,176,183,189,193,196,195,192,186,179,172,165,159,155,153,152,152,154,155,157,158,159,159,160,160,160,161,161,161,161,161,163,165,168,172,177,181,184,185,184,182,178,172,166,159,151,143,135,127,118,108,99,89,80,71,64,59,55,53,54,56,59,62,64,64,63,58,52,44,34,25,17,10,5,2,0,0,0,0,-1,-1,-2,-3,-3,-3,-3,-2,-1,0,0,0,0,-1,-2,-2,-2,0,3,9,17,28,39,50,59,65,68,66,62,54,46,37,29,23,18,15,13,12,12,11,11,10,9,7,6,4,3,2,2,2,3,4,20,17,11,43,10,-105,216,165,128,104,92,66,37,4,-13,-34,-13,0,-7,9,-9,-14,-20,-27,-34,-41,-48,-54,-61,-67,-73,-79,-87,-95,-105,-117,-130,-145,-161,-178,-193,-208,-221,-232,-241,-248,-255,-260,-266,-273,-282,-295,-311,-332,-358,-387,-419,-453,-486,-519,-551,-581,-611,-642,-673,-707,-742,-780,-821,-864,-910,-958,-1009,-1063,-1119,-1179,-1242,-1308,-1376,-1445,-1515,-1585,-1654,-1721,-1787,-1852,-1915,-1976,-2037,-2098,-2160,-2223,-2288,-2354,-2420,-2486,-2550,-2610,-2665,-2713,-2755</Data>
					</WaveformSegment>
					<WaveformSegment Time="2021-09-27T20:53:36.000+12:00">
						<SampleRate>1000</SampleRate>
						<DataResolution>1.0000</DataResolution>
						<Data>-2788,-2813,-2831,-2842,-2847,-2846,-2840,-2830,-2816,-2799,-2779,-2756,-2730,-2702,-2671,-2639,-2603,-2566,-2527,-2485,-2442,-2398,-2352,-2305,-2257,-2208,-2156,-2103,-2048,-1991,-1932,-1872,-1810,-1746,-1680,-1612,-1543,-1473,-1403,-1333,-1265,-1199,-1135,-1074,-1015,-959,-905,-854,-807,-763,-723,-687,-655,-626,-601,-577,-554,-530,-504,-475,-443,-409,-374,-338,-302,-269,-238,-209,-181,-155,-130,-104,-78,-52,-26,0,26,51,77,101,124,146,166,185,202,219,234,249,263,277,289,300,309,316,319,321,320,319,317,317,319,324,330,338,347,356,363,370,375,379,381,383,384,385,387,389,391,393,395,398,402,406,410,415,420,425,430,435,440,446,452,459,466,474,480,484,486,486,484,481,479,478,478,481,486,493,502,511,519,528,535,540,545,550,554,559,564,571,579,587,595,602,608,611,614,615,616,617,620,624,629,635,642,649,656,663,670,677,685,693,701,708,716,724,731,738,745,752,760,767,774,781,789,797,806,815,825,835,845,854,861,867,871,874,877,880,883,888,893,899,906,913,921,929,938,948,959,971,982,993,1001,1008,1012,1014,1015,1016,1017,1018,1021,1024,1027,1031,1034,1037,1040,1042,1045,1047,1049,1052,1054,1055,1057,1059,1060,1062,1064,1065,1066,1066,1066,1065,1064,1061,1056,1051,1044,1037,1029,1021,1013,1005,997,991,985,981,977,975,972,968,962,953,942,928,912,895,878,862,846,831,817,803,791,780,769,759,750,742,734,727,718,708,695,679,661,640,618,596,574,555,538,523,510,499,489,479,469,459,448,436,424,412,399,386,372,359,346,334,323,312,301,291,280,269,258,247,236,225,216,207,200,195,191,188,185,181,176,169,160,148,135,122,108,96,85,77,71,67,63,61,59,57,55,53,51,49,47,45,44,42,41,40,39,39,39,40,42,45,49,53,57,61,62,60,57,50,42,34,25,19,14,12,11,12,14,17,20,23,26,28,30,31,32,33,32,31,29,27,24,21,19,18,17,18,20,24,29,34,39,42,43,42,38,32,24,15,8,1,-3,-6,-8,-8,-7,-5,-3,-1,2,6,11,18,26,33,39,43,44,42,38,32,25,18,13,9,7,7,8,10,13,16,19,21,23,25,26,27,29,31,33,34,36,38,39,41,42,44,46,50,55,63,73,84,96,108,118,125,130,131,131,130,128,126,125,124,124,124,125,126,126,126,126,125,124,123,122,121,121,122,123,126,131,136,142,148,152,155,155,152,147,140,133,126,120,115,112,110,108,106,105,102,100,97,95,93,91,90,89,88,86,84,81,77,73,69,64,59,53,48,44,40,38,36,36,35,33,30,25,19,12,5,0,-5,-8,-10,-11,-12,-13,-14,-17,-20,-24,-29,-33,-37,-40,-42,-44,-44,-45,-44,-44,-43,-41,-39,-37,-34,-31,-28,-24,-21,-18,-15,-13,-12,-12,-12,-13,-13,-12,-11,-8,-4,0,3,7,10,11,10,8,4,-1,-7,-14,-22,-28,-35,-40,-46,-34,-29,-58,-218,123,59,11,-2,-34,-39,-12,-36,-45,-55,-38,-36,-46,-52,-55,-54,-54,-53,-52,-53,-55,-59,-67,-78,-91,-105,-121,-137,-152,-166,-178,-189,-200,-209,-219,-229,-238,-248,-258,-268,-278,-289,-302,-316,-331,-348,-367,-386,-406,-425,-444,-464,-486,-509,-536,-565,-598,-633,-670,-708,-748,-789,-831,-876,-922,-972,-1023,-1077,-1134,-1193,-1253,-1315,-1377,-1440,-1502,-1563,-1623,-1681,-1739,-1796,-1854,-1913,-1974,-2035,-2098,-2161,-2224,-2284,-2341,-2395,-2443,-2485,-2521,-2552,-2579,-2601,-2621,-2637,-2650,-2661,-2669,-2675,-2678,-2679,-2677,-2673,-2666,-2656,-2643,-2627,-2608,-2586,-2561,-2534,-2503,-2470,-2433,-2395,-2354,-2313,-2270,-2227,-2183,-2138,-2090,-2040,-1987,-1930,-1869,-1803,-1734,-1663,-1589,-1514,-1440,-1368,-1298,-1230,-1166,-1104,-1046,-990,-938,-890,-846,-806,-771,-740,-711,-685,-659,-634,-608,-580,-549,-516,-481,-443,-404,-364,-325,-288,-254,-223,-195,-169,-144,-120,-95,-70,-45,-19,6,32,58,84,108,131,152,171,189,204,217,228,238,247,255,263,270,277,284,292,301,311,320,329,336,341,343,343,341,339,336,333,333,334,336,340,345,350,355,360,364,368,372,376,380,384,388,392,397,402,407,412,416,420,424,427,431,434,437,440,443,447,451,456,461,468,477,487,497,507,516,522,527,529,529,528,527,526,525,526,528,532,537,543,550,558,566,574,582,590,598,606,613,621,628,634,640,646,650,654,656,659,661,665,671,679,690,703,717,731,744,755,763,768,772,774,776,778,782,787,794,802,811,820,830,840,851,862,874,886,897,909,919,927,934,939,942,944,945,947,949,952,957,962,968,975,982,990,997,1004,1010,1016,1023,1029,1035,1040,1046,1051,1056,1059,1062,1063,1063,1062,1061,1059,1058,1057,1057,1058,1060,1062,1066,1069,1072,1074,1074,1070,1064,1055,1044,1032,1020,1008,998,989,981,976,971,966,962,957,951,944,936,927,918,908,898,887,876,865,855,845,835,825,814,804,793,780,767,753,738,722,707,691,676,662</Data>
						<Annotation Type="Pacer">
							<Sample Offset="605" />
						</Annotation>
					</WaveformSegment>
					<WaveformSegment Time="2021-09-27T20:53:37.000+12:00">
						<SampleRate>1000</SampleRate>
						<DataResolution>1.0000</DataResolution>
						<Data>648,634,620,607,595,584,574,564,554,544,531,516,499,479,459,438,418,400,383,368,354,343,332,322,312,302,292,283,274,266,258,251,245,238,231,224,217,209,201,194,186,179,173,167,161,155,149,144,139,133,128,121,115,108,102,98,95,94,95,97,100,103,104,103,98,92,83,74,66,59,55,52,52,53,54,55,55,55,55,54,54,54,54,55,56,58,60,62,63,65,65,65,65,64,63,63,63,63,63,63,62,62,61,60,60,61,63,67,73,79,86,91,95,95,92,85,77,68,59,51,46,43,43,44,47,50,53,56,58,60,61,62,63,65,66,68,69,71,72,74,75,76,77,78,78,79,79,79,79,78,77,76,75,75,75,76,77,78,79,80,80,81,81,82,84,86,89,93,98,103,107,109,108,105,99,92,84,76,69,64,61,59,60,61,63,66,69,71,73,73,72,70,68,65,63,61,59,58,58,59,61,64,69,74,79,83,85,85,83,78,73,66,60,55,51,49,48,48,48,49,51,52,53,54,55,54,54,54,55,57,60,65,71,77,82,86,87,86,83,79,75,71,70,71,74,80,88,97,108,118,127,136,142,147,149,150,149,148,148,148,148,149,151,153,156,158,161,164,168,171,174,175,175,172,167,160,152,143,135,129,125,123,123,124,126,128,129,130,130,128,126,123,119,116,112,109,107,106,106,106,107,107,106,103,99,92,85,76,67,59,51,43,36,30,25,20,16,12,9,6,4,2,1,0,0,0,-1,-1,-2,-2,-3,-4,-6,-8,-10,-12,-13,-14,-15,-15,-15,-15,-14,-14,-14,-13,-11,-8,-5,0,6,13,20,26,30,30,28,23,16,9,2,-4,-9,-12,-13,-13,-11,-9,-7,-5,-3,-2,-2,-2,-3,-4,-6,-7,-9,-41,-36,-35,-60,-97,-268,133,105,98,48,18,-27,-73,-69,-47,-68,-67,-52,-81,-96,-44,-51,-58,-64,-71,-76,-82,-87,-93,-99,-107,-116,-127,-139,-152,-166,-179,-193,-206,-218,-230,-240,-250,-258,-266,-273,-281,-290,-300,-312,-326,-343,-363,-385,-409,-434,-460,-486,-511,-536,-559,-582,-605,-631,-660,-693,-732,-776,-825,-877,-930,-985,-1040,-1095,-1151,-1208,-1265,-1324,-1385,-1446,-1507,-1569,-1629,-1688,-1746,-1803,-1861,-1919,-1978,-2039,-2100,-2162,-2223,-2282,-2337,-2387,-2432,-2472,-2506,-2537,-2564,-2587,-2608,-2625,-2639,-2648,-2654,-2655,-2653,-2648,-2640,-2630,-2618,-2605,-2592,-2577,-2561,-2544,-2526,-2506,-2485,-2462,-2436,-2408,-2376,-2340,-2301,-2257,-2209,-2158,-2104,-2047,-1989,-1929,-1867,-1803,-1737,-1669,-1599,-1527,-1456,-1384,-1313,-1243,-1175,-1108,-1045,-984,-927,-875,-828,-787,-751,-721,-694,-670,-648,-625,-602,-577,-550,-521,-491,-459,-427,-394,-361,-326,-291,-256,-221,-185,-151,-117,-85,-55,-26,0,26,51,75,99,121,141,159,176,191,205,218,231,245,259,272,285,295,303,309,311,311,309,307,305,305,306,309,313,317,322,327,332,336,341,345,350,354,359,364,369,374,380,386,392,399,405,411,416,420,424,427,430,434,437,441,444,447,449,451,454,457,461,467,474,483,493,504,514,522,528,531,532,531,529,527,525,525,525,527,530,534,538,543,548,552,557,562,568,574,581,589,597,605,613,620,627,633,638,643,646,650,654,659,664,671,679,688,697,705,713,720,727,734,742,752,762,774,786,798,808,816,821,824,825,826,827,828,831,835,840,847,854,862,870,877,885,893,900,907,915,922,930,937,943,950,956,961,967,974,981,989,998,1008,1017,1025,1030,1032,1031,1028,1023,1017,1012,1008,1006,1005,1006,1008,1010,1011,1013,1013,1012,1011,1009,1007,1006,1006,1006,1007,1008,1009,1009,1008,1006,1002,997,991,985,978,970,963,955,948,941,934,927,919,910,900,889,876,862,847,833,819,805,792,779,767,756,746,737,729,722,715,706,696,683,666,647,626,604,582,562,544,529,516,504,494,484,474,464,454,442,431,418,406,393,379,366,352,339,326,314,303,293,283,275,267,260,252,244,236,227,218,208,199,190,182,175,170,166,163,161,159,156,151,144,135,125,113,101,90,81,73,66,61,58,56,55,55,56,58,60,63,66,68,70,70,70,69,67,65,63,61,59,57,55,53,51,49,47,46,46,46,47,48,50,52,54,56,58,61,62,63,64,64,63,62,62,63,66,70,76,81,86,88,88,85,80,74,67,62,58,55,54,54,54,55,56,56,56,57,57,57,57,57,58,58,59,59,60,60,61,63,65,67,70,73,75,77,78,79,78,78,77,77,77,77,78,79,80,81,82,83,82,82,80,79,79,80,82,85,89,92,95,95,93,89,84,78,72,68,65,63,64,66,68,70,72,74,74,74,73,71,68,65,62,59,57,55,54,53,53,54,55,57,58,60,60,60,60,58,56,54,51,49,48,47,48,49,52,54,56,58,58,58,56,55,53,51,49,47</Data>
						<Annotation Type="Pacer">
							<Sample Offset="379" />
						</Annotation>
					</WaveformSegment>
					<WaveformSegment Time="2021-09-27T20:53:38.000+12:00">
						<SampleRate>1000</SampleRate>
						<DataResolution>1.0000</DataResolution>
						<Data>45,43,41,40,39,38,37,36,35,34,34,36,39,43,49,56,63,68,72,74,74,72,70,68,67,68,71,75,80,87,93,98,102,105,107,108,109,110,112,115,119,124,130,135,139,142,145,146,145,144,142,140,137,134,130,127,124,121,118,116,114,112,111,110,109,107,105,104,102,100,98,96,94,93,92,90,88,87,85,83,81,80,80,81,83,85,87,88,88,85,80,71,61,49,36,24,14,4,-3,-9,-14,-17,-18,-19,-18,-17,-16,-15,-15,-15,-16,-18,-20,-22,-25,-27,-30,-33,-35,-37,-38,-37,-36,-33,-30,-28,-25,-23,-21,-20,-19,-19,-18,-17,-15,-13,-12,-10,-9,-8,-8,-8,-9,-10,-11,-12,-11,-10,-8,-6,-4,-2,-1,0,0,0,0,0,0,0,0,0,0,0,0,0,0,-1,-1,-1,-2,-2,-3,-67,-58,-64,-412,112,32,-38,-43,-53,-76,-94,-104,-114,-99,-85,-73,-73,-75,-85,-118,-30,-36,-42,-49,-56,-63,-70,-78,-87,-96,-107,-119,-132,-146,-161,-176,-190,-204,-217,-229,-239,-248,-257,-266,-275,-285,-296,-308,-322,-338,-356,-377,-400,-425,-451,-478,-505,-532,-558,-585,-613,-642,-674,-708,-746,-787,-830,-876,-923,-972,-1023,-1075,-1128,-1183,-1239,-1297,-1356,-1417,-1477,-1537,-1597,-1655,-1714,-1772,-1831,-1890,-1951,-2012,-2074,-2137,-2200,-2261,-2320,-2376,-2428,-2475,-2517,-2554,-2586,-2612,-2634,-2650,-2662,-2669,-2673,-2673,-2670,-2665,-2658,-2650,-2641,-2630,-2617,-2602,-2587,-2570,-2552,-2534,-2516,-2496,-2474,-2450,-2422,-2390,-2353,-2312,-2267,-2218,-2165,-2111,-2053,-1994,-1932,-1868,-1801,-1732,-1661,-1590,-1518,-1447,-1377,-1310,-1245,-1183,-1123,-1066,-1011,-959,-910,-863,-819,-779,-743,-709,-678,-649,-621,-593,-565,-535,-504,-472,-438,-405,-371,-337,-303,-269,-236,-203,-170,-137,-104,-72,-40,-10,17,42,66,88,108,126,143,159,174,189,203,217,230,243,255,265,274,281,287,292,296,299,302,305,307,310,313,316,319,322,325,328,332,336,341,346,351,356,360,364,367,370,373,375,377,379,381,382,383,383,384,386,388,392,398,404,412,420,428,436,443,449,454,458,462,464,466,467,467,468,470,473,477,482,488,494,502,510,518,527,536,544,552,560,567,573,579,585,590,596,601,606,611,616,621,625,630,635,640,646,652,658,664,670,676,682,687,691,696,701,707,714,721,729,738,748,757,767,776,785,793,800,807,814,820,826,832,838,843,848,854,860,867,874,883,892,902,913,924,935,945,954,962,969,974,978,983,988,994,1000,1007,1014,1022,1029,1036,1041,1046,1049,1050,1051,1052,1052,1052,1053,1055,1058,1061,1064,1066,1068,1070,1070,1070,1069,1067,1065,1062,1059,1056,1054,1052,1050,1048,1045,1043,1039,1035,1029,1022,1014,1006,997,988,978,969,959,950,940,930,920,910,898,886,874,861,848,835,822,809,797,785,773,761,750,739,728,716,704,691,678,664,651,637,622,608,594,579,565,550,534,518,503,487,473,459,446,434,422,412,402,391,381,369,358,346,334,323,313,303,293,283,274,263,253,242,232,222,213,204,197,190,184,179,174,170,165,160,154,147,139,131,123,116,110,105,102,100,100,100,101,102,103,103,102,100,97,93,90,87,84,82,80,79,77,76,73,71,69,67,66,65,65,65,65,65,64,64,63,63,63,64,65,67,69,71,73,76,77,79,80,80,81,81,81,81,81,82,84,85,86,87,88,89,89,89,90,90,90,90,90,90,90,90,90,89,88,86,85,83,81,80,78,77,77,77,77,78,79,80,81,82,82,83,83,82,82,81,80,80,80,80,80,80,81,82,84,85,87,88,88,88,87,86,84,82,80,78,76,74,72,70,68,67,66,65,65,65,66,68,70,71,72,72,71,69,66,64,62,61,60,60,60,60,61,62,62,63,65,67,69,71,73,75,76,76,74,72,68,65,61,58,55,53,53,53,53,55,58,61,64,67,69,71,73,75,77,79,82,86,91,96,102,109,117,125,132,139,145,149,152,154,155,155,154,153,152,150,148,145,142,140,138,137,136,136,137,139,140,141,141,141,140,138,136,135,133,131,129,127,124,121,118,114,111,108,106,105,106,107,108,109,110,109,108,106,103,99,95,91,87,82,76,70,64,56,48,39,31,23,16,11,6,3,0,-1,-4,-6,-9,-12,-15,-18,-21,-23,-25,-27,-28,-29,-30,-31,-31,-32,-32,-33,-34,-35,-36,-37,-38,-39,-39,-38,-37,-34,-31,-28,-25,-22,-19,-17,-15,-13,-12,-12,-12,-13,-15,-17,-19,-21,-22,-23,-23,-23,-22,-21,-20,-19,-19,-19,-19,-19,-19,-19,-19,-19,-19,-18,-17,-15,-14,-14,-13,-13,-13,-12,-12,-110,-105,-102,-115,-319,62,-21,-60,-57,-84,-84,-97,-85,-99,-112,-132,-125,-108,-104,-125,-41,-48,-55,-62,-70,-78,-86,-95,-105,-115,-125,-135,-145,-155,-166,-178,-190,-201,-213,-224,-233,-242,-249,-256,-263,-270,-279,-291,-304,-321,-341,-365,-391,-419,-448</Data>
						<Annotation Type="Pacer">
							<Sample Offset="173" />
						</Annotation>
						<Annotation Type="Pacer">
							<Sample Offset="945" />
						</Annotation>
					</WaveformSegment>
				</Waveform>
				<Waveform Type="ECG_III" Units="uV">
					<Filters>
						<HighPass>0.5</HighPass>
						<LowPass>35</LowPass>
						<BaselineDriftRemoval>ON</BaselineDriftRemoval>
					</Filters>
					<WaveformSegment Time="2021-09-27T20:53:29.000+12:00">
						<SampleRate>1000</SampleRate>
						<DataResolution>1.0000</DataResolution>
						<Data>-1008,-1064,-1123,-1185,-1249,-1314,-1381,-1450,-1521,-1594,-1668,-1743,-1820,-1896,-1973,-2050,-2126,-2201,-2277,-2354,-2432,-2512,-2595,-2679,-2765,-2851,-2936,-3019,-3099,-3173,-3241,-3304,-3359,-3407,-3447,-3479,-3503,-3520,-3530,-3534,-3531,-3523,-3509,-3491,-3469,-3442,-3412,-3378,-3342,-3305,-3266,-3226,-3186,-3145,-3104,-3062,-3018,-2972,-2924,-2873,-2819,-2762,-2702,-2640,-2575,-2508,-2440,-2369,-2296,-2222,-2145,-2068,-1989,-1910,-1832,-1755,-1679,-1605,-1533,-1463,-1395,-1330,-1266,-1204,-1144,-1086,-1031,-978,-928,-881,-836,-794,-753,-714,-675,-636,-597,-556,-515,-473,-430,-387,-343,-299,-256,-212,-168,-125,-83,-43,-3,34,71,106,139,169,196,220,241,258,274,288,300,312,322,332,340,347,353,358,362,366,369,372,376,379,382,384,387,388,390,391,391,391,392,392,392,392,393,395,397,400,404,407,410,413,416,420,424,429,434,440,447,454,462,469,477,484,492,498,504,510,514,518,521,524,526,529,532,535,539,543,547,551,555,560,564,567,571,574,577,579,582,586,590,595,600,606,612,618,625,631,638,646,654,663,672,682,693,705,717,728,740,751,762,773,783,793,803,812,821,830,838,845,851,857,863,868,872,877,881,886,891,897,903,909,915,921,928,936,944,953,962,972,982,992,1002,1012,1022,1032,1041,1051,1060,1068,1076,1084,1091,1098,1106,1113,1121,1128,1135,1142,1149,1157,1164,1171,1178,1184,1190,1195,1199,1203,1205,1208,1210,1211,1213,1213,1213,1213,1212,1210,1209,1207,1204,1202,1200,1197,1193,1189,1184,1178,1172,1166,1160,1155,1151,1146,1142,1137,1130,1123,1115,1105,1095,1083,1071,1057,1044,1030,1016,1002,989,977,965,953,941,930,917,905,891,878,863,849,834,819,803,787,771,754,737,720,703,685,668,651,634,617,600,584,568,552,537,523,510,497,485,473,461,450,439,427,416,405,393,382,370,358,347,335,323,312,302,292,282,272,263,254,246,238,230,222,214,207,200,194,188,183,178,173,168,163,158,152,147,143,139,136,134,132,131,130,129,128,127,126,126,126,126,126,126,127,128,129,130,130,130,130,129,128,127,126,125,123,122,120,118,117,115,114,114,114,115,116,118,119,119,120,119,119,118,118,118,118,118,118,118,118,118,118,118,118,118,119,119,119,120,120,120,120,120,120,120,120,120,121,121,121,122,122,122,122,122,121,121,121,121,122,124,125,127,128,129,129,129,129,129,129,129,130,131,132,133,134,134,135,134,134,134,133,133,133,132,131,131,130,130,129,129,128,127,126,126,126,126,126,126,127,127,127,128,127,127,126,125,123,121,119,116,114,112,111,110,109,108,107,106,105,104,104,104,104,105,106,106,107,106,106,105,103,101,100,98,96,95,95,95,96,98,99,99,99,99,98,97,95,93,92,91,90,90,90,90,90,90,90,89,88,87,85,83,81,79,77,76,76,76,77,78,79,79,80,80,80,80,81,82,83,84,84,84,83,82,80,79,77,75,74,73,72,72,71,71,70,69,68,68,68,67,67,67,66,66,66,66,66,66,66,66,65,65,65,64,63,62,61,60,59,59,59,60,61,62,62,63,62,62,60,59,57,56,54,53,53,53,53,53,53,53,53,53,53,53,53,54,55,56,56,56,56,55,54,53,53,53,53,53,54,54,55,54,54,53,52,51,49,48,48,48,48,49,50,52,53,55,57,58,58,59,58,57,56,54,53,51,49,47,46,45,45,45,45,45,46,47,48,48,48,48,48,48,48,48,48,48,49,49,50,49,49,47,46,44,43,42,42,43,44,45,47,48,49,50,49,49,48,46,45,44,43,43,43,43,43,43,44,45,46,47,48,48,48,48,47,45,44,42,40,38,37,36,37,38,40,43,46,48,50,52,53,53,52,51,49,48,46,44,42,40,39,39,39,39,39,39,39,39,39,38,37,36,34,33,32,31,31,31,31,32,33,34,34,35,34,34,33,33,32,32,32,32,32,32,32,32,32,32,-15,-17,-10,5,137,165,-99,-79,-61,-64,-52,-48,-65,-60,-29,-30,-32,-18,-44,-40,18,16,14,12,11,10,10,11,12,14,15,16,16,16,15,14,13,12,12,13,15,17,21,25,30,36,41,46,51,55,59,62,64,65,66,65,65,64,63,61,60,58,57,57,57,57,58,60,62,64,67,69,71,72,71,70,68,65,63,61,59,57,56,55,55,56,58,60,62,65,68,70,72,73,73,73,73,72,71,70,68,67,65,64,62,60,57,54,51,46,42,37,32,27,23,20,-32,-42,-51,-99,-108,29,14,-15,-53,-66,-70,-78,-87,-91,-87,-100,-119,-114,-128,-147,-34,-45,-57,-68,-77,-86,-94,-101,-109,-117,-125,-134,-144,-154,-165,-177,-189,-202,-216,-230,-245,-260,-274,-288,-302,-315,-329,-344,-361,-380,-402,-426,-453,-483,-515,-548,-582,-617,-651,-686,-722,-759,-798,-839,-883</Data>
					</WaveformSegment>
					<WaveformSegment Time="2021-09-27T20:53:30.000+12:00">
						<SampleRate>1000</SampleRate>
						<DataResolution>1.0000</DataResolution>
						<Data>-930,-979,-1031,-1086,-1143,-1201,-1262,-1324,-1389,-1455,-1522,-1591,-1661,-1731,-1800,-1869,-1937,-2005,-2072,-2140,-2209,-2279,-2350,-2422,-2494,-2566,-2637,-2705,-2770,-2830,-2885,-2936,-2981,-3021,-3056,-3086,-3111,-3132,-3148,-3160,-3169,-3175,-3178,-3179,-3178,-3174,-3168,-3160,-3149,-3137,-3122,-3105,-3086,-3064,-3039,-3011,-2980,-2945,-2906,-2863,-2816,-2766,-2712,-2656,-2596,-2534,-2469,-2401,-2330,-2257,-2181,-2103,-2023,-1943,-1863,-1784,-1707,-1631,-1557,-1486,-1417,-1351,-1287,-1226,-1167,-1111,-1057,-1006,-957,-909,-864,-819,-776,-733,-690,-647,-604,-561,-517,-473,-429,-384,-339,-294,-250,-207,-164,-123,-82,-43,-6,30,65,98,130,159,186,210,231,250,266,280,292,303,312,320,328,335,341,347,352,357,362,366,370,373,376,380,384,388,392,396,400,405,410,415,421,426,432,438,443,448,452,456,460,463,465,468,471,474,478,482,486,490,494,498,502,505,509,512,515,518,521,524,527,531,535,539,544,550,556,562,568,574,580,584,589,593,597,601,605,609,613,618,623,627,631,635,638,641,645,649,653,657,661,665,670,674,679,684,689,694,700,705,711,716,721,726,731,737,743,750,758,766,776,785,795,804,812,820,827,834,840,846,853,859,865,871,877,884,890,896,903,909,915,922,930,938,946,954,963,972,981,989,998,1005,1013,1021,1028,1035,1042,1048,1055,1060,1066,1071,1076,1081,1086,1090,1095,1100,1105,1111,1116,1121,1125,1129,1132,1135,1136,1136,1136,1136,1136,1135,1135,1135,1134,1134,1133,1131,1129,1126,1123,1119,1114,1109,1103,1097,1091,1084,1077,1071,1064,1057,1050,1042,1034,1026,1017,1008,999,989,980,970,959,948,936,924,910,896,882,867,852,838,824,811,797,784,770,755,740,725,709,694,678,663,649,635,621,608,595,583,570,558,545,532,519,506,493,479,465,452,438,425,412,399,386,374,362,350,339,328,318,308,298,288,278,269,260,252,244,235,227,219,210,201,192,184,176,169,162,156,151,147,142,138,133,129,124,119,114,110,106,102,98,95,92,90,88,86,84,83,82,80,78,77,75,73,71,69,67,65,63,61,59,57,55,53,52,51,51,52,53,54,55,55,55,54,52,50,49,47,46,45,45,46,47,49,52,56,60,63,67,71,74,78,80,82,83,84,83,81,80,78,76,75,74,74,76,78,80,84,88,92,96,100,103,104,106,106,106,106,105,104,103,102,102,102,102,102,102,102,103,104,106,109,113,117,121,125,129,131,132,132,132,130,129,128,128,128,128,129,130,130,131,132,133,135,136,137,137,137,136,135,134,133,131,130,130,130,130,131,132,133,133,133,131,130,127,125,123,121,119,117,116,116,116,116,116,115,114,113,111,110,108,107,107,107,107,108,109,109,110,109,109,108,107,106,104,103,102,102,101,101,100,99,98,96,93,90,87,84,82,80,78,76,75,73,72,72,72,72,72,72,71,71,70,69,68,66,65,64,64,64,64,65,67,68,70,71,72,73,74,74,74,75,75,74,74,74,73,72,70,68,65,62,58,55,52,50,49,49,49,51,52,54,55,55,55,55,54,52,51,49,48,47,47,47,47,48,48,49,48,48,47,47,47,47,48,50,51,52,52,52,51,50,48,47,47,47,47,48,48,49,48,48,48,48,49,50,52,54,56,58,60,61,61,61,61,60,59,59,59,61,63,66,70,75,81,86,92,98,103,108,113,117,121,125,128,130,133,134,136,137,139,141,143,145,147,149,150,152,153,152,151,150,148,146,144,142,141,140,140,140,141,143,144,144,145,144,144,142,141,138,136,133,130,127,125,122,120,118,115,113,110,107,104,100,97,93,90,86,83,79,75,70,65,58,52,45,39,33,29,25,21,19,17,16,15,15,15,15,15,16,18,20,22,23,25,27,28,29,29,29,29,27,25,22,19,15,11,7,4,2,1,0,0,0,0,0,0,0,0,0,1,2,4,6,9,12,16,20,25,29,34,38,41,43,45,47,48,49,51,53,55,56,58,59,58,57,55,51,47,42,37,33,29,25,22,20,17,15,13,10,7,5,3,1,0,0,0,0,0,0,0,0,0,0,0,0,1,2,3,-121,-126,-109,-135,-166,-69,-79,-88,-86,-91,-101,-143,-143,-135,-139,-113,-113,-129,-151,-161,-21,-30,-39,-49,-59,-68,-78,-88,-98,-108,-119,-130,-142,-156,-170,-184,-200,-216,-232,-248,-263,-279,-295,-310,-326,-342,-359,-377,-397,-420,-446,-475,-507,-542,-578,-616,-653,-689,-724,-758,-790,-823,-857,-892,-930,-972,-1016,-1065,-1116,-1171,-1229,-1291,-1355,-1422,-1491,-1562,-1635,-1709,-1784,-1859,-1934,-2008,-2081,-2154,-2227,-2301,-2377,-2456,-2539,-2625,-2713,-2801,-2888,-2970,-3048,-3120,-3185,-3245,-3297,-3344,-3385,-3420,-3450,-3474,-3493,-3506,-3514,-3516,-3513,-3504,-3490,-3471,-3446,-3417,-3384,-3348,-3309,-3268,-3226,-3183,-3137,-3089,-3039,-2987,-2932,-2874,-2814,-2751,-2687,-2620,-2551,-2480,-2408,-2334,-2258</Data>
					</WaveformSegment>
					<WaveformSegment Time="2021-09-27T20:53:31.000+12:00">
						<SampleRate>1000</SampleRate>
						<DataResolution>1.0000</DataResolution>
						<Data>-2181,-2104,-2026,-1948,-1871,-1795,-1720,-1645,-1572,-1499,-1428,-1358,-1290,-1223,-1159,-1096,-1035,-976,-919,-865,-814,-766,-720,-676,-635,-594,-553,-512,-471,-429,-386,-342,-298,-252,-207,-161,-116,-71,-28,13,52,90,127,161,194,225,253,280,304,325,344,361,375,388,399,409,418,426,433,439,445,452,458,464,470,476,481,485,489,493,497,501,505,509,513,516,520,524,527,530,533,535,538,540,542,545,549,553,558,564,569,574,579,584,589,593,598,604,609,615,620,626,630,634,638,641,644,646,649,653,657,661,665,669,673,678,684,689,695,700,706,711,716,721,726,730,735,739,744,748,753,757,762,768,774,780,786,792,798,804,809,815,821,827,833,839,845,851,858,865,871,878,883,889,894,900,906,912,919,926,934,942,950,958,966,973,980,987,993,1000,1007,1015,1023,1031,1039,1046,1054,1062,1069,1075,1082,1088,1095,1102,1109,1117,1125,1133,1141,1150,1157,1164,1171,1176,1182,1186,1191,1195,1199,1204,1208,1212,1217,1222,1226,1231,1234,1237,1240,1242,1244,1246,1249,1253,1256,1259,1260,1260,1259,1257,1253,1249,1244,1238,1233,1226,1219,1212,1203,1195,1187,1179,1171,1163,1155,1148,1140,1132,1124,1115,1106,1098,1089,1080,1071,1061,1051,1040,1028,1016,1002,988,973,958,941,923,905,887,869,853,837,822,808,795,783,770,757,744,729,714,699,683,667,651,635,619,603,587,572,557,542,528,514,501,489,477,465,453,441,429,417,405,393,381,370,358,346,334,323,313,302,292,282,272,262,252,242,234,226,219,213,207,202,198,193,189,184,179,174,170,166,162,159,157,156,155,154,154,154,153,151,150,147,145,142,140,138,136,135,134,134,133,133,132,132,131,130,129,129,129,129,129,129,129,128,128,127,126,126,126,126,127,129,130,132,134,135,136,137,138,140,141,143,144,145,145,145,145,144,143,143,143,143,144,146,147,148,149,150,150,151,151,151,152,152,152,152,152,152,152,152,152,153,155,157,160,164,167,170,173,176,178,179,180,180,180,179,179,179,179,180,181,183,187,191,195,201,208,215,222,229,235,241,245,248,250,250,251,251,251,251,252,254,255,256,256,257,257,257,258,258,258,257,257,255,253,249,246,242,238,234,230,227,224,222,221,220,219,219,218,218,216,215,212,210,207,204,201,199,196,193,190,186,183,179,176,172,169,165,161,155,149,143,136,129,123,117,112,107,103,100,97,94,91,89,86,84,81,78,75,71,67,63,59,54,49,45,41,38,35,33,33,33,34,36,39,43,47,52,57,61,65,68,71,73,74,75,75,75,75,75,75,74,74,74,73,73,72,71,70,69,68,68,69,70,71,73,74,74,74,73,72,70,69,68,68,69,70,72,74,76,78,79,81,83,83,84,83,80,77,73,68,64,60,57,-87,-86,-89,-110,-129,-1,-18,-47,-80,-83,-75,-84,-120,-100,-129,-96,-97,-90,-102,-109,32,26,20,13,6,-1,-10,-19,-30,-41,-53,-67,-81,-95,-110,-126,-141,-157,-172,-187,-202,-216,-230,-244,-258,-274,-291,-310,-331,-355,-381,-411,-443,-478,-515,-554,-593,-632,-672,-711,-751,-791,-831,-873,-916,-962,-1011,-1063,-1118,-1176,-1237,-1300,-1366,-1435,-1505,-1577,-1649,-1722,-1794,-1865,-1935,-2004,-2072,-2139,-2206,-2275,-2345,-2417,-2492,-2568,-2645,-2721,-2797,-2870,-2938,-3002,-3060,-3112,-3158,-3197,-3230,-3256,-3277,-3292,-3303,-3310,-3314,-3315,-3313,-3309,-3302,-3294,-3283,-3270,-3255,-3237,-3218,-3197,-3173,-3148,-3119,-3087,-3052,-3012,-2968,-2919,-2867,-2810,-2751,-2688,-2622,-2554,-2484,-2411,-2337,-2259,-2180,-2100,-2018,-1935,-1853,-1771,-1690,-1611,-1533,-1458,-1385,-1314,-1247,-1182,-1119,-1060,-1004,-951,-901,-854,-809,-765,-723,-680,-637,-594,-549,-503,-456,-408,-359,-310,-262,-214,-167,-122,-78,-36,3,40,76,110,143,174,203,231,257,281,303,323,341,357,371,384,395,405,414,421,428,433,439,444,448,453,458,463,468,472,475,478,479,480,480,481,482,484,486,489,493,497,502,507,512,517,522,526,530,535,539,543,548,552,556,560,563,566,568,571,573,576,579,583,587,592,598,604,610,616,623,629,635,641,646,652,657,663,668,674,679,685,690,696,701,706,711,716,721,726,732,738,744,751,758,764,770,776,781,785,790,794,799,805,812,819,828,837,846,856,865,873,882,889,897,905,912,919,926,933,941,949,957,966,976,986,997,1009,1021,1032,1043,1053,1062,1070,1078,1085,1092,1100,1109,1118,1128,1139,1150,1160,1169,1178,1185,1191,1196,1201,1207,1213,1219,1225,1231,1238,1245,1251,1257,1263,1268,1274,1278,1283,1286,1290,1293,1296,1298,1300,1302,1303,1303,1304,1303,1303,1302,1301,1299,1298,1296,1293,1291,1287,1283,1277,1272,1265,1259,1251,1244,1235,1227,1217,1207,1196,1185,1173,1161,1148,1135,1122,1109,1096,1083,1070,1057,1043,1029,1013,998,981,965,948,931,913,895,877,858,840,822,804,787,770,753,737,720,703,686,668,650,632,614,596,578,561,544,528,512,497,482</Data>
					</WaveformSegment>
					<WaveformSegment Time="2021-09-27T20:53:32.000+12:00">
						<SampleRate>1000</SampleRate>
						<DataResolution>1.0000</DataResolution>
						<Data>468,455,443,431,420,409,397,385,372,359,346,333,320,307,295,283,272,261,251,242,233,225,217,209,201,194,187,181,175,169,163,158,154,150,146,142,137,133,128,122,117,111,106,102,99,97,95,94,93,91,89,86,83,79,76,72,68,64,61,59,57,57,57,57,59,61,63,65,67,69,71,73,76,77,78,78,77,76,73,71,69,67,65,65,65,65,67,69,70,72,72,72,72,71,70,68,67,65,64,63,63,63,63,64,64,64,64,64,65,66,69,74,80,86,93,98,103,106,107,108,108,108,108,108,108,109,110,110,110,110,109,108,107,106,105,104,103,102,102,102,103,104,107,111,115,121,126,132,136,140,144,147,151,155,159,164,168,171,173,174,175,176,178,180,182,186,190,194,198,202,205,206,207,207,206,205,203,201,199,196,192,189,184,180,176,173,170,169,170,172,174,177,179,180,179,177,172,167,161,156,152,149,149,151,155,160,167,174,182,190,198,206,215,225,235,245,254,261,265,266,263,255,242,226,207,185,163,142,122,106,94,86,82,81,83,85,87,87,85,80,74,67,59,52,45,39,34,29,24,19,14,10,7,5,4,5,6,8,9,10,10,8,6,3,0,-4,-8,-13,-17,-20,-22,-22,-20,-15,-7,4,18,33,47,59,66,66,61,52,39,24,11,-224,-154,-145,-145,-327,-29,-51,-86,-96,-107,-131,-133,-128,-132,-112,-151,-134,-134,-127,-148,3,7,11,13,13,12,9,5,-1,-10,-20,-31,-42,-54,-65,-74,-84,-92,-101,-111,-122,-134,-146,-160,-175,-190,-208,-227,-249,-274,-301,-331,-363,-397,-432,-469,-506,-544,-582,-621,-661,-702,-745,-790,-836,-885,-937,-991,-1049,-1109,-1173,-1238,-1306,-1374,-1444,-1513,-1582,-1650,-1717,-1781,-1844,-1904,-1963,-2022,-2082,-2144,-2209,-2279,-2354,-2432,-2513,-2596,-2677,-2754,-2827,-2894,-2954,-3006,-3051,-3089,-3120,-3145,-3163,-3175,-3182,-3184,-3182,-3176,-3170,-3162,-3156,-3151,-3148,-3146,-3146,-3145,-3144,-3140,-3134,-3124,-3110,-3092,-3068,-3038,-3002,-2961,-2914,-2862,-2806,-2747,-2685,-2620,-2552,-2481,-2406,-2328,-2246,-2163,-2078,-1992,-1908,-1824,-1741,-1660,-1580,-1501,-1424,-1349,-1277,-1208,-1143,-1083,-1026,-973,-922,-874,-827,-781,-735,-689,-644,-598,-552,-507,-462,-418,-374,-331,-288,-245,-200,-155,-108,-60,-11,39,89,139,188,234,275,312,343,368,387,400,410,415,418,420,420,422,425,430,437,446,457,469,481,492,503,513,523,533,543,553,563,573,583,592,599,605,609,611,612,610,607,600,590,577,561,543,526,510,498,491,489,492,500,512,525,539,553,566,578,591,603,615,627,640,651,661,669,674,677,677,675,672,667,662,657,652,648,646,645,646,650,656,665,677,691,707,725,743,762,780,796,809,820,827,833,836,838,840,843,846,852,859,869,881,895,910,927,943,959,973,986,996,1005,1011,1016,1019,1021,1022,1022,1023,1023,1024,1027,1030,1035,1042,1049,1057,1066,1075,1085,1095,1106,1119,1134,1150,1167,1184,1201,1216,1229,1240,1249,1257,1265,1274,1284,1296,1307,1319,1329,1336,1340,1340,1336,1330,1321,1312,1303,1295,1289,1284,1281,1281,1284,1289,1296,1305,1316,1327,1338,1346,1351,1350,1345,1333,1318,1299,1280,1262,1249,1240,1237,1240,1245,1252,1258,1262,1261,1256,1247,1234,1218,1201,1184,1167,1152,1139,1127,1116,1106,1097,1087,1077,1065,1053,1040,1028,1016,1005,995,985,975,963,950,933,914,893,870,845,821,797,775,755,738,723,710,700,690,682,672,662,650,636,620,602,584,567,552,540,531,526,524,524,524,524,521,515,506,493,478,459,438,415,389,362,333,306,281,261,247,239,239,245,256,270,284,298,309,315,317,313,302,286,264,237,208,176,144,114,86,61,42,28,18,13,11,11,14,18,22,27,32,37,41,44,45,45,44,42,40,39,40,44,50,58,67,74,80,83,82,79,74,68,63,59,56,56,57,60,66,73,82,94,109,126,145,164,182,196,206,209,204,192,174,151,126,102,80,63,52,45,44,46,51,57,65,74,83,95,107,120,134,145,155,162,165,166,165,164,167,174,187,206,231,260,291,322,348,368,381,383,376,358,330,295,255,212,169,128,91,59,34,15,1,-8,-13,-16,-16,-13,-9,-2,6,17,31,45,60,74,87,97,103,107,108,107,103,98,92,85,78,72,69,69,73,81,92,104,116,127,135,140,143,145,146,148,150,151,152,152,149,144,135,125,113,100,88,78,70,66,66,70,78,91,106,124,143,162,181,197,209,216,217,212,201,186,169,151,134,120,110,104,102,104,109,115,122,129,134,138,139,137,131,121,108,93,77,62,47,35,25,18,12,9,6,4,2,1,1,1,3,7,13,21,32,43,54,63,69,70,68,62,53,42,30,16,2,-13,-31,-52,-73,-95,-116,-133,-145,-151,-151,-147,-138,-126,-113,-100,-89,-78,-69,-61,-53,-45,-37,-30,-25,-21,-19,-19,-23,-29,-37,-47,-58</Data>
					</WaveformSegment>
					<WaveformSegment Time="2021-09-27T20:53:33.000+12:00">
						<SampleRate>1000</SampleRate>
						<DataResolution>1.0000</DataResolution>
						<Data>-67,-75,-81,-83,-81,-75,-66,-55,-43,-32,-21,-13,-7,-3,-1,-366,-332,-289,-283,-354,-178,-237,-309,-352,-350,-302,-303,-281,-293,-279,-299,-277,-252,-282,-353,-64,-84,-105,-125,-143,-156,-164,-167,-165,-159,-151,-143,-136,-133,-136,-144,-159,-181,-208,-240,-274,-309,-345,-379,-412,-444,-476,-509,-543,-578,-615,-653,-691,-730,-767,-803,-837,-868,-898,-925,-951,-976,-1002,-1030,-1061,-1095,-1135,-1179,-1227,-1279,-1334,-1391,-1449,-1508,-1568,-1630,-1693,-1759,-1827,-1898,-1971,-2046,-2122,-2198,-2274,-2350,-2426,-2500,-2574,-2646,-2715,-2780,-2841,-2896,-2947,-2992,-3034,-3072,-3109,-3144,-3178,-3213,-3246,-3279,-3310,-3338,-3362,-3381,-3396,-3406,-3411,-3412,-3409,-3404,-3397,-3387,-3374,-3358,-3338,-3315,-3288,-3257,-3225,-3189,-3152,-3111,-3066,-3017,-2963,-2905,-2842,-2775,-2704,-2629,-2553,-2475,-2395,-2316,-2235,-2155,-2074,-1992,-1910,-1827,-1744,-1663,-1586,-1514,-1447,-1387,-1331,-1279,-1229,-1179,-1127,-1074,-1018,-961,-903,-845,-787,-731,-675,-619,-565,-511,-457,-403,-349,-296,-244,-195,-150,-110,-75,-44,-17,7,31,54,78,101,124,146,167,187,207,225,242,258,272,285,298,310,323,336,351,366,382,398,412,423,432,439,444,449,454,460,465,469,472,473,472,468,463,456,450,445,443,446,453,466,483,502,520,536,546,550,546,535,519,500,478,457,437,421,409,403,404,412,427,447,473,500,526,549,567,578,583,583,578,571,564,557,552,549,548,549,553,560,569,581,594,608,623,638,652,667,681,696,711,727,743,759,774,788,801,812,822,832,841,850,858,865,870,874,876,877,879,883,890,902,919,943,972,1006,1042,1077,1111,1139,1161,1176,1183,1183,1178,1168,1156,1143,1131,1120,1111,1104,1099,1096,1095,1095,1095,1095,1095,1094,1094,1094,1094,1094,1096,1099,1106,1115,1128,1142,1156,1170,1180,1188,1193,1196,1198,1200,1203,1206,1209,1212,1214,1213,1210,1204,1197,1189,1181,1175,1171,1169,1168,1169,1170,1171,1173,1175,1177,1180,1184,1189,1194,1199,1204,1208,1210,1209,1205,1198,1187,1171,1153,1132,1109,1086,1063,1042,1021,1002,984,967,951,936,921,907,894,882,870,859,851,844,841,842,846,853,863,872,879,882,878,865,843,813,775,731,685,637,591,547,507,470,436,405,378,353,330,312,296,286,280,280,285,296,313,334,358,384,409,432,450,462,466,460,443,415,376,328,273,215,157,101,52,10,-22,-46,-60,-68,-68,-65,-58,-50,-41,-32,-23,-13,-3,7,20,33,45,57,65,70,71,69,64,57,50,43,36,30,25,22,19,18,17,17,18,20,23,26,30,34,39,44,49,53,57,59,61,62,63,64,66,69,73,77,81,84,86,85,82,78,72,65,59,55,53,53,56,61,67,75,82,89,94,98,100,101,103,107,114,125,139,154,168,178,182,179,169,151,129,105,82,61,43,29,18,12,8,6,6,6,8,10,12,15,20,26,35,48,64,84,108,135,162,188,209,223,228,224,209,187,160,130,100,73,49,31,17,9,6,8,14,24,36,50,65,78,89,98,106,114,124,138,158,185,220,260,305,349,388,417,433,434,418,386,341,287,227,168,113,66,30,4,-11,-18,-17,-11,0,16,34,56,78,99,118,132,142,148,149,148,146,144,144,144,144,141,136,126,113,96,79,62,47,37,30,27,27,29,30,32,32,32,31,31,31,31,32,34,35,37,38,40,42,43,44,44,44,43,42,40,38,36,34,32,29,25,20,13,6,-1,-6,-8,-7,-2,6,18,31,45,58,71,83,94,104,115,124,133,141,147,151,150,145,134,118,97,73,46,21,-1,-20,-35,-45,-50,-52,-51,-48,-45,-42,-39,-38,-38,-39,-40,-41,-42,-41,-40,-38,-36,-33,-30,-413,-359,-332,-307,-467,-205,-300,-364,-411,-423,-443,-437,-394,-409,-413,-437,-437,-432,-448,-417,-32,-33,-32,-30,-27,-22,-18,-16,-16,-22,-33,-48,-68,-91,-115,-139,-161,-180,-196,-209,-220,-228,-236,-243,-250,-260,-273,-289,-311,-337,-368,-403,-441,-480,-519,-556,-590,-620,-644,-665,-684,-702,-723,-750,-785,-829,-883,-946,-1017,-1094,-1173,-1255,-1337,-1419,-1501,-1583,-1665,-1745,-1823,-1899,-1972,-2042,-2110,-2177,-2242,-2308,-2376,-2445,-2515,-2588,-2661,-2733,-2804,-2872,-2936,-2995,-3048,-3096,-3139,-3177,-3211,-3239,-3263,-3283,-3298,-3310,-3320,-3327,-3332,-3335,-3335,-3331,-3324,-3313,-3298,-3280,-3259,-3235,-3208,-3180,-3149,-3117,-3084,-3052,-3020,-2988,-2956,-2922,-2884,-2842,-2793,-2738,-2676,-2608,-2535,-2458,-2378,-2293,-2203,-2108,-2009,-1904,-1797,-1691,-1587,-1491,-1406,-1332,-1271,-1222,-1182,-1148,-1116,-1084,-1049,-1011,-969,-924,-876,-823,-767,-705,-639,-569,-497,-425,-356,-292,-235,-186,-146,-113,-87,-66,-50,-35,-22,-8,8,27,49,74,102,131,160,189,217,242,265,284,300,313,323,331,338,345,352,361,370,379,388,395,401,404,405,404,402,399,397,395,395,396,399,403,407,413,420,427,434,442,450,458,466,474,482,489,497,504,510,515,519,522,524,528,533,540,548,557,565,571,575,577,577,576,576,577,580,585,592,601,610,620,629,636,643,649,655,664,677,695,719,749,782</Data>
					</WaveformSegment>
					<WaveformSegment Time="2021-09-27T20:53:34.000+12:00">
						<SampleRate>1000</SampleRate>
						<DataResolution>1.0000</DataResolution>
						<Data>817,850,877,896,903,899,883,860,833,804,778,756,739,726,717,713,714,721,736,760,793,837,889,947,1009,1071,1127,1175,1210,1231,1238,1231,1211,1182,1147,1108,1069,1031,996,966,942,923,910,904,903,907,915,927,941,959,979,1002,1027,1053,1079,1103,1123,1138,1147,1150,1150,1147,1144,1142,1142,1146,1153,1164,1178,1194,1212,1228,1243,1254,1262,1265,1264,1260,1255,1249,1244,1241,1238,1235,1232,1227,1221,1215,1207,1201,1195,1190,1187,1184,1182,1181,1181,1181,1182,1183,1185,1187,1187,1185,1180,1171,1158,1141,1123,1103,1082,1061,1040,1020,1000,981,962,943,925,907,888,869,850,832,815,799,785,774,765,759,755,751,749,745,739,729,714,693,665,633,596,558,520,485,453,426,403,385,370,359,350,343,336,329,319,307,291,272,249,224,197,171,146,124,107,96,91,90,94,102,111,120,129,137,142,145,145,142,137,130,120,108,94,79,62,45,27,9,-7,-23,-37,-49,-57,-60,-59,-53,-43,-31,-17,-5,5,11,14,13,10,5,0,-5,-12,-20,-30,-42,-54,-66,-77,-85,-90,-92,-90,-85,-76,-65,-52,-36,-20,-3,12,26,37,44,45,40,30,15,-2,-22,-41,-58,-70,-78,-80,-79,-74,-67,-60,-52,-44,-36,-29,-22,-16,-10,-4,0,4,7,9,8,6,2,-3,-9,-14,-18,-20,-21,-20,-19,-18,-18,-20,-23,-27,-31,-33,-34,-31,-25,-15,0,18,40,65,91,115,135,149,154,150,136,113,85,54,23,-6,-31,-52,-67,-77,-81,-80,-77,-71,-65,-60,-55,-52,-49,-47,-43,-38,-32,-26,-20,-14,-8,-2,5,13,23,34,45,56,65,73,77,79,77,73,66,58,49,40,33,27,22,19,17,15,15,16,18,21,27,34,43,54,66,81,97,114,132,149,165,176,183,184,177,165,148,129,110,92,77,65,56,49,43,37,31,24,18,12,8,5,5,7,11,17,24,31,38,44,48,51,51,49,44,38,29,18,5,-8,-22,-36,-50,-62,-73,-82,-88,-93,-96,-96,-95,-92,-88,-82,-73,-62,-50,-35,-20,-4,10,22,31,34,32,26,15,2,-10,-22,-33,-40,-45,-46,-46,-43,-38,-32,-25,-16,-5,6,20,36,55,77,101,126,153,179,204,227,246,260,267,266,256,237,211,181,151,122,98,81,70,65,-75,-114,-158,-233,-296,-399,-245,-300,-330,-297,-244,-225,-210,-178,-161,-165,-189,-209,-224,-209,-60,-91,-120,-147,-168,-185,-197,-205,-210,-213,-214,-214,-214,-214,-213,-210,-207,-201,-193,-183,-174,-168,-168,-176,-196,-229,-274,-328,-389,-453,-515,-574,-627,-673,-714,-751,-784,-814,-841,-867,-893,-918,-944,-974,-1008,-1047,-1094,-1146,-1205,-1270,-1340,-1414,-1494,-1579,-1669,-1763,-1860,-1959,-2058,-2153,-2243,-2326,-2402,-2471,-2533,-2591,-2646,-2700,-2756,-2815,-2877,-2944,-3014,-3088,-3163,-3238,-3313,-3386,-3455,-3519,-3576,-3624,-3661,-3686,-3698,-3696,-3680,-3652,-3614,-3566,-3513,-3456,-3399,-3344,-3295,-3252,-3218,-3191,-3169,-3152,-3134,-3115,-3092,-3063,-3029,-2989,-2944,-2894,-2839,-2778,-2711,-2639,-2561,-2477,-2390,-2298,-2204,-2108,-2011,-1916,-1823,-1733,-1650,-1573,-1505,-1445,-1392,-1345,-1303,-1262,-1221,-1177,-1129,-1077,-1022,-964,-906,-848,-793,-740,-689,-639,-589,-539,-487,-436,-384,-334,-285,-238,-193,-151,-111,-73,-37,-2,30,61,90,117,141,164,184,202,219,234,249,265,283,303,325,350,375,400,423,445,464,480,494,504,511,516,518,520,522,524,527,532,536,541,543,544,541,535,528,520,513,509,509,515,525,541,559,580,600,619,635,649,659,667,674,681,687,692,697,701,701,697,689,677,661,645,629,615,606,601,601,606,614,623,634,645,656,666,675,683,692,701,710,721,733,746,760,774,788,802,816,830,843,857,870,882,893,902,909,915,920,924,927,929,932,936,940,944,949,956,963,972,983,995,1008,1021,1035,1048,1060,1071,1080,1089,1097,1104,1109,1114,1117,1119,1119,1118,1117,1115,1114,1115,1117,1121,1128,1139,1153,1170,1190,1212,1234,1255,1275,1291,1304,1315,1322,1328,1334,1338,1343,1348,1353,1359,1364,1369,1373,1376,1378,1379,1378,1375,1372,1368,1365,1361,1357,1355,1353,1352,1352,1352,1353,1354,1355,1355,1354,1352,1349,1345,1339,1332,1324,1314,1303,1291,1277,1264,1250,1236,1222,1209,1197,1186,1175,1165,1155,1146,1137,1127,1117,1107,1096,1084,1072,1060,1048,1035,1023,1009,995,980,965,948,932,915,897,880,864,848,833,818,804,792,780,769,760,752,745,740,735,729,721,711,698,682,663,641,618,594,571,548,527,508,491,476,463,451,442,433,425,417,409,402,394,388,382,378,376,377,379,383,387,392,396,399,400,399,397,394,389,382,374,362,349,334,317,300,284,269,256,246,239,234,232,231,232,234,237,240,244,248,253,258,262,266,269,270,269,267,263,260,257,255,255,257,261,266,272,278,285,290,295,299,302,304,306,307,308,309,310,311,312,312,311,310,308,305,303,303,306,312,323,338,358,381,404,425,441,452,455,452,442,429,414,400,390,384,383,387,396,406,418,427,433,434,428,417,401,381,359,338,319</Data>
					</WaveformSegment>
					<WaveformSegment Time="2021-09-27T20:53:35.000+12:00">
						<SampleRate>1000</SampleRate>
						<DataResolution>1.0000</DataResolution>
						<Data>303,290,279,271,264,258,253,248,243,238,233,229,225,223,221,220,221,224,227,231,236,242,248,254,260,266,272,276,280,281,280,278,274,268,263,256,250,244,238,232,226,222,218,216,216,217,220,225,232,240,249,259,270,282,295,309,324,340,358,376,395,412,428,439,446,448,446,440,432,424,417,414,415,420,428,439,451,463,472,478,480,477,469,457,442,425,406,387,369,353,339,329,323,324,330,344,366,395,429,469,510,549,583,609,624,626,616,593,562,524,483,441,400,361,326,294,265,239,216,195,177,162,149,139,132,127,124,123,125,129,134,141,149,157,165,173,180,185,188,190,191,191,189,188,185,183,181,178,176,173,170,167,164,161,157,153,150,146,143,141,140,140,141,144,147,151,155,160,165,170,174,178,182,186,190,196,203,213,227,245,268,293,321,349,375,396,410,415,411,399,378,352,323,293,264,239,217,200,187,216,245,257,313,328,233,397,332,305,262,276,325,335,350,362,325,324,303,285,304,133,121,107,92,76,60,44,30,18,9,3,-1,-4,-8,-11,-17,-25,-36,-50,-68,-89,-113,-139,-165,-192,-220,-247,-275,-302,-330,-358,-386,-414,-443,-471,-499,-525,-549,-569,-586,-600,-612,-622,-632,-643,-659,-679,-706,-742,-785,-837,-896,-963,-1038,-1118,-1205,-1297,-1393,-1492,-1592,-1691,-1789,-1883,-1973,-2058,-2138,-2213,-2285,-2353,-2419,-2482,-2543,-2601,-2656,-2709,-2760,-2811,-2863,-2916,-2971,-3027,-3081,-3133,-3180,-3220,-3251,-3274,-3286,-3287,-3278,-3258,-3227,-3187,-3140,-3088,-3033,-2979,-2929,-2885,-2846,-2814,-2787,-2762,-2737,-2708,-2675,-2637,-2592,-2542,-2487,-2429,-2369,-2306,-2242,-2175,-2106,-2033,-1959,-1882,-1804,-1725,-1647,-1571,-1496,-1423,-1351,-1282,-1214,-1147,-1082,-1017,-954,-892,-832,-774,-719,-666,-617,-571,-529,-490,-454,-420,-387,-355,-321,-286,-250,-211,-170,-129,-87,-46,-7,30,65,99,130,158,185,210,233,255,274,291,306,319,330,339,347,353,358,361,362,360,357,353,347,340,334,328,323,319,317,317,319,324,330,338,346,355,363,371,377,383,388,393,399,404,410,416,421,427,432,436,441,445,449,454,458,462,466,469,472,474,476,478,479,479,480,481,483,486,489,493,497,502,508,514,520,526,532,537,543,549,554,560,565,570,575,580,584,589,594,600,605,611,616,622,628,633,639,645,651,656,662,668,673,679,685,690,696,702,708,714,720,727,735,743,752,761,770,778,786,792,798,803,808,813,819,825,833,841,851,860,870,878,887,894,900,907,913,919,925,931,937,943,949,955,961,966,971,976,981,987,993,1000,1007,1014,1021,1027,1033,1038,1043,1047,1051,1054,1056,1059,1060,1062,1063,1063,1064,1063,1063,1062,1061,1060,1058,1055,1052,1048,1044,1038,1033,1027,1021,1015,1008,1001,994,987,979,972,963,955,946,936,926,917,907,897,886,876,866,855,843,831,819,806,793,779,766,753,740,727,714,700,687,672,658,643,629,615,601,587,573,559,544,530,515,500,485,471,457,444,431,418,405,392,379,366,353,339,326,313,300,287,275,262,249,236,223,209,196,184,172,162,152,144,136,129,122,116,110,104,99,94,90,86,82,78,74,69,63,57,50,43,37,31,26,22,19,16,14,13,13,12,11,10,8,7,5,4,2,1,0,0,0,-1,-2,-2,-2,-2,-1,0,0,0,0,0,1,2,4,6,8,11,14,16,18,20,22,23,23,23,21,19,17,16,15,15,15,16,17,18,19,20,21,23,25,27,29,31,34,35,36,37,38,38,39,39,40,41,42,43,43,44,45,45,45,46,46,46,47,48,50,51,53,54,55,56,57,59,61,64,68,72,76,81,87,92,98,103,109,115,120,126,131,135,140,144,148,152,156,159,163,166,169,171,174,175,177,178,179,180,181,181,182,182,183,183,184,185,186,187,187,188,188,188,189,188,188,187,185,184,182,181,181,181,181,183,184,186,186,185,183,180,176,172,168,165,162,160,158,155,152,148,144,139,134,128,122,117,111,106,101,97,93,90,87,84,80,76,72,67,63,59,55,52,49,47,45,43,42,41,40,40,39,39,39,38,37,36,35,34,33,32,31,30,29,29,29,30,32,35,39,43,49,55,62,68,73,78,81,82,83,83,82,80,79,77,76,74,73,72,72,71,70,68,67,65,63,61,60,59,59,60,62,64,66,96,91,72,77,81,2,151,110,110,113,115,101,87,71,78,75,61,55,55,70,43,36,28,20,12,4,-3,-10,-18,-26,-34,-43,-53,-64,-75,-88,-101,-115,-129,-143,-157,-170,-181,-191,-201,-211,-222,-234,-248,-265,-284,-306,-331,-358,-387,-418,-450,-483,-516,-549,-582,-616,-650,-685,-723,-763,-805,-851,-900,-952,-1007,-1065,-1126,-1189,-1255,-1324,-1395,-1468,-1543,-1619,-1695,-1771,-1846,-1920,-1993,-2065,-2138,-2211,-2285,-2360,-2436,-2514,-2591,-2667,-2740,-2809,-2875,-2935,-2990,-3040,-3084</Data>
					</WaveformSegment>
					<WaveformSegment Time="2021-09-27T20:53:36.000+12:00">
						<SampleRate>1000</SampleRate>
						<DataResolution>1.0000</DataResolution>
